PE UV       SUBTECH     SPECTRUM    ASCII       PEDS        4.00        
   -1
KI5-02A_1CM.Sample.Raw.asc
11/08/25
12:39:19.00
11/08/25
12:39:19.00
Hermanni Kaartokallio

200.000000
1
Lambda 650
650N8121101
PerkinElmer UV WinLab 6.0.2.0723 / 1.61.00 Lambda 650

0
0
2
0
0
UV/VIS
1
1
1
uv/vis/nir detector
0
0
0
0
Fix
 
0
0.24
0
0
0
 
 
 
0
 
0
319.2
0
Front
100
 
 
 
0
0
0
 
0
 
 
 
0
 
 
0
0
0
0
0
 
 
 
 
0
0
#HDR
-1
-1
#GR
nm
A
1.0
0.0
800.000000
-1.000000
601
8
1.589805
0.031425
#DATA
800.000000	0.038672
799.000000	0.038794
798.000000	0.039266
797.000000	0.039086
796.000000	0.039069
795.000000	0.039138
794.000000	0.039324
793.000000	0.039216
792.000000	0.039349
791.000000	0.039569
790.000000	0.039573
789.000000	0.039410
788.000000	0.039473
787.000000	0.039716
786.000000	0.039880
785.000000	0.039708
784.000000	0.040181
783.000000	0.040166
782.000000	0.040118
781.000000	0.040215
780.000000	0.040425
779.000000	0.040646
778.000000	0.040520
777.000000	0.040749
776.000000	0.041002
775.000000	0.041193
774.000000	0.041227
773.000000	0.041397
772.000000	0.041427
771.000000	0.041555
770.000000	0.041671
769.000000	0.041769
768.000000	0.042010
767.000000	0.041957
766.000000	0.041937
765.000000	0.042049
764.000000	0.041924
763.000000	0.041907
762.000000	0.042059
761.000000	0.042052
760.000000	0.041765
759.000000	0.041703
758.000000	0.041752
757.000000	0.041769
756.000000	0.041763
755.000000	0.041728
754.000000	0.041727
753.000000	0.041568
752.000000	0.041576
751.000000	0.041601
750.000000	0.041651
749.000000	0.041507
748.000000	0.041436
747.000000	0.041532
746.000000	0.041506
745.000000	0.041460
744.000000	0.041497
743.000000	0.041473
742.000000	0.041378
741.000000	0.041315
740.000000	0.041251
739.000000	0.041221
738.000000	0.041077
737.000000	0.040850
736.000000	0.040544
735.000000	0.040151
734.000000	0.039764
733.000000	0.039441
732.000000	0.038988
731.000000	0.038380
730.000000	0.037772
729.000000	0.037308
728.000000	0.036851
727.000000	0.036524
726.000000	0.036373
725.000000	0.036038
724.000000	0.035585
723.000000	0.035230
722.000000	0.035035
721.000000	0.034828
720.000000	0.034621
719.000000	0.034371
718.000000	0.034177
717.000000	0.033964
716.000000	0.033752
715.000000	0.033703
714.000000	0.033621
713.000000	0.033387
712.000000	0.033246
711.000000	0.033182
710.000000	0.033121
709.000000	0.032938
708.000000	0.032957
707.000000	0.033014
706.000000	0.032809
705.000000	0.032682
704.000000	0.032636
703.000000	0.032504
702.000000	0.032325
701.000000	0.032112
700.000000	0.031991
699.000000	0.031927
698.000000	0.031773
697.000000	0.031723
696.000000	0.031686
695.000000	0.031623
694.000000	0.031586
693.000000	0.031498
692.000000	0.031425
691.000000	0.031461
690.000000	0.031437
689.000000	0.031462
688.000000	0.031531
687.000000	0.031550
686.000000	0.031584
685.000000	0.031530
684.000000	0.031513
683.000000	0.031633
682.000000	0.031710
681.000000	0.031704
680.000000	0.031747
679.000000	0.031832
678.000000	0.031863
677.000000	0.031898
676.000000	0.031979
675.000000	0.032022
674.000000	0.031900
673.000000	0.031938
672.000000	0.032066
671.000000	0.032091
670.000000	0.032105
669.000000	0.032217
668.000000	0.032287
667.000000	0.032234
666.000000	0.032269
665.000000	0.032220
664.000000	0.032265
663.000000	0.032306
662.000000	0.032239
661.000000	0.032283
660.000000	0.032293
659.000000	0.032200
658.000000	0.032231
657.000000	0.032297
656.000000	0.032253
655.000000	0.032211
654.000000	0.032248
653.000000	0.032268
652.000000	0.032294
651.000000	0.032354
650.000000	0.032469
649.000000	0.032483
648.000000	0.032490
647.000000	0.032485
646.000000	0.032724
645.000000	0.032785
644.000000	0.032855
643.000000	0.032931
642.000000	0.032970
641.000000	0.033038
640.000000	0.033211
639.000000	0.033368
638.000000	0.033352
637.000000	0.033342
636.000000	0.033433
635.000000	0.033579
634.000000	0.033681
633.000000	0.033778
632.000000	0.033728
631.000000	0.033558
630.000000	0.033510
629.000000	0.033494
628.000000	0.033630
627.000000	0.033560
626.000000	0.033467
625.000000	0.033408
624.000000	0.033387
623.000000	0.033358
622.000000	0.033352
621.000000	0.033474
620.000000	0.033427
619.000000	0.033274
618.000000	0.033360
617.000000	0.033359
616.000000	0.033412
615.000000	0.033440
614.000000	0.033442
613.000000	0.033421
612.000000	0.033480
611.000000	0.033553
610.000000	0.033624
609.000000	0.033739
608.000000	0.033641
607.000000	0.033715
606.000000	0.033869
605.000000	0.033930
604.000000	0.033902
603.000000	0.034059
602.000000	0.034036
601.000000	0.033975
600.000000	0.034170
599.000000	0.034211
598.000000	0.034212
597.000000	0.034328
596.000000	0.034283
595.000000	0.034418
594.000000	0.034345
593.000000	0.034445
592.000000	0.034516
591.000000	0.034674
590.000000	0.034641
589.000000	0.034637
588.000000	0.034727
587.000000	0.034779
586.000000	0.034912
585.000000	0.035057
584.000000	0.035249
583.000000	0.035129
582.000000	0.035134
581.000000	0.035333
580.000000	0.035407
579.000000	0.035422
578.000000	0.035551
577.000000	0.035577
576.000000	0.035618
575.000000	0.035736
574.000000	0.035865
573.000000	0.035912
572.000000	0.036095
571.000000	0.036041
570.000000	0.036133
569.000000	0.036248
568.000000	0.036262
567.000000	0.036461
566.000000	0.036559
565.000000	0.036516
564.000000	0.036608
563.000000	0.036766
562.000000	0.036795
561.000000	0.036910
560.000000	0.037102
559.000000	0.037121
558.000000	0.037115
557.000000	0.037158
556.000000	0.037272
555.000000	0.037352
554.000000	0.037434
553.000000	0.037528
552.000000	0.037551
551.000000	0.037509
550.000000	0.037638
549.000000	0.037646
548.000000	0.037707
547.000000	0.037699
546.000000	0.037699
545.000000	0.037797
544.000000	0.037776
543.000000	0.037923
542.000000	0.037955
541.000000	0.037672
540.000000	0.037779
539.000000	0.037797
538.000000	0.037804
537.000000	0.037829
536.000000	0.037973
535.000000	0.037791
534.000000	0.037886
533.000000	0.037807
532.000000	0.037818
531.000000	0.037896
530.000000	0.037867
529.000000	0.037794
528.000000	0.037829
527.000000	0.037933
526.000000	0.038026
525.000000	0.038105
524.000000	0.038095
523.000000	0.037954
522.000000	0.038121
521.000000	0.038181
520.000000	0.038206
519.000000	0.038244
518.000000	0.038273
517.000000	0.038258
516.000000	0.038387
515.000000	0.038437
514.000000	0.038489
513.000000	0.038625
512.000000	0.038705
511.000000	0.038703
510.000000	0.038832
509.000000	0.038940
508.000000	0.038995
507.000000	0.039135
506.000000	0.039188
505.000000	0.039225
504.000000	0.039390
503.000000	0.039467
502.000000	0.039573
501.000000	0.039717
500.000000	0.039776
499.000000	0.039871
498.000000	0.040005
497.000000	0.040089
496.000000	0.040273
495.000000	0.040505
494.000000	0.040603
493.000000	0.040691
492.000000	0.040876
491.000000	0.040989
490.000000	0.041157
489.000000	0.041377
488.000000	0.041445
487.000000	0.041532
486.000000	0.041772
485.000000	0.041918
484.000000	0.042072
483.000000	0.042315
482.000000	0.042380
481.000000	0.042485
480.000000	0.042640
479.000000	0.042753
478.000000	0.042907
477.000000	0.043143
476.000000	0.043231
475.000000	0.043326
474.000000	0.043533
473.000000	0.043780
472.000000	0.043985
471.000000	0.044138
470.000000	0.044246
469.000000	0.044424
468.000000	0.044662
467.000000	0.044812
466.000000	0.045078
465.000000	0.045383
464.000000	0.045448
463.000000	0.045675
462.000000	0.045936
461.000000	0.046104
460.000000	0.046389
459.000000	0.046633
458.000000	0.046714
457.000000	0.046924
456.000000	0.047209
455.000000	0.047479
454.000000	0.047746
453.000000	0.047951
452.000000	0.048031
451.000000	0.048262
450.000000	0.048481
449.000000	0.048780
448.000000	0.048966
447.000000	0.049218
446.000000	0.049416
445.000000	0.049700
444.000000	0.049980
443.000000	0.050214
442.000000	0.050392
441.000000	0.050697
440.000000	0.050812
439.000000	0.051115
438.000000	0.051353
437.000000	0.051684
436.000000	0.051947
435.000000	0.052150
434.000000	0.052272
433.000000	0.052462
432.000000	0.052726
431.000000	0.052982
430.000000	0.053301
429.000000	0.053463
428.000000	0.053638
427.000000	0.053970
426.000000	0.054260
425.000000	0.054615
424.000000	0.055036
423.000000	0.055133
422.000000	0.055245
421.000000	0.055624
420.000000	0.055960
419.000000	0.056279
418.000000	0.056640
417.000000	0.056692
416.000000	0.056984
415.000000	0.057357
414.000000	0.057746
413.000000	0.058100
412.000000	0.058597
411.000000	0.058732
410.000000	0.059034
409.000000	0.059536
408.000000	0.059887
407.000000	0.060387
406.000000	0.061012
405.000000	0.061193
404.000000	0.061490
403.000000	0.062022
402.000000	0.062485
401.000000	0.063022
400.000000	0.063590
399.000000	0.063929
398.000000	0.064270
397.000000	0.064831
396.000000	0.065351
395.000000	0.065943
394.000000	0.066562
393.000000	0.066846
392.000000	0.067285
391.000000	0.068043
390.000000	0.068639
389.000000	0.069318
388.000000	0.070018
387.000000	0.070325
386.000000	0.070833
385.000000	0.071623
384.000000	0.072228
383.000000	0.072825
382.000000	0.073593
381.000000	0.073986
380.000000	0.074720
379.000000	0.075398
378.000000	0.076353
377.000000	0.076864
376.000000	0.077698
375.000000	0.078437
374.000000	0.079180
373.000000	0.079903
372.000000	0.080713
371.000000	0.081571
370.000000	0.082378
369.000000	0.083142
368.000000	0.084067
367.000000	0.084820
366.000000	0.085700
365.000000	0.086618
364.000000	0.087468
363.000000	0.088397
362.000000	0.089293
361.000000	0.090289
360.000000	0.091224
359.000000	0.092259
358.000000	0.093063
357.000000	0.094027
356.000000	0.095029
355.000000	0.096138
354.000000	0.097202
353.000000	0.098221
352.000000	0.099277
351.000000	0.100320
350.000000	0.101335
349.000000	0.102406
348.000000	0.103596
347.000000	0.104660
346.000000	0.105792
345.000000	0.106864
344.000000	0.108011
343.000000	0.109104
342.000000	0.110288
341.000000	0.111566
340.000000	0.112751
339.000000	0.113915
338.000000	0.115077
337.000000	0.116342
336.000000	0.117607
335.000000	0.118921
334.000000	0.120283
333.000000	0.121589
332.000000	0.122840
331.000000	0.124234
330.000000	0.125591
329.000000	0.126952
328.000000	0.128334
327.000000	0.129633
326.000000	0.131001
325.000000	0.132393
324.000000	0.133935
323.000000	0.135458
322.000000	0.136914
321.000000	0.138427
320.000000	0.139966
319.000000	0.141666
318.000000	0.143212
317.000000	0.144993
316.000000	0.146718
315.000000	0.148362
314.000000	0.150007
313.000000	0.151809
312.000000	0.153504
311.000000	0.155411
310.000000	0.157369
309.000000	0.159123
308.000000	0.160946
307.000000	0.162899
306.000000	0.164805
305.000000	0.166815
304.000000	0.168892
303.000000	0.170980
302.000000	0.173153
301.000000	0.175285
300.000000	0.177387
299.000000	0.179666
298.000000	0.181906
297.000000	0.184037
296.000000	0.186452
295.000000	0.188853
294.000000	0.191172
293.000000	0.193759
292.000000	0.196322
291.000000	0.198762
290.000000	0.201346
289.000000	0.204012
288.000000	0.206690
287.000000	0.209420
286.000000	0.212181
285.000000	0.214943
284.000000	0.217768
283.000000	0.220576
282.000000	0.223326
281.000000	0.226146
280.000000	0.228971
279.000000	0.231696
278.000000	0.234490
277.000000	0.237397
276.000000	0.240263
275.000000	0.243247
274.000000	0.246317
273.000000	0.249221
272.000000	0.252052
271.000000	0.254937
270.000000	0.257874
269.000000	0.260693
268.000000	0.263540
267.000000	0.266443
266.000000	0.269131
265.000000	0.271638
264.000000	0.274102
263.000000	0.276679
262.000000	0.279153
261.000000	0.281568
260.000000	0.284037
259.000000	0.286373
258.000000	0.288646
257.000000	0.291025
256.000000	0.293275
255.000000	0.295285
254.000000	0.297432
253.000000	0.299694
252.000000	0.302027
251.000000	0.304376
250.000000	0.306687
249.000000	0.309183
248.000000	0.311719
247.000000	0.314386
246.000000	0.317213
245.000000	0.320474
244.000000	0.323805
243.000000	0.327158
242.000000	0.330737
241.000000	0.334634
240.000000	0.338564
239.000000	0.342819
238.000000	0.347362
237.000000	0.351871
236.000000	0.356548
235.000000	0.361586
234.000000	0.366759
233.000000	0.372063
232.000000	0.377534
231.000000	0.383263
230.000000	0.388788
229.000000	0.394277
228.000000	0.400055
227.000000	0.406169
226.000000	0.412205
225.000000	0.418414
224.000000	0.424940
223.000000	0.432138
222.000000	0.439513
221.000000	0.447388
220.000000	0.456210
219.000000	0.465528
218.000000	0.476182
217.000000	0.488385
216.000000	0.501908
215.000000	0.517582
214.000000	0.535565
213.000000	0.556354
212.000000	0.580437
211.000000	0.608026
210.000000	0.640060
209.000000	0.676429
208.000000	0.718953
207.000000	0.768225
206.000000	0.826429
205.000000	0.894718
204.000000	0.977220
203.000000	1.079350
202.000000	1.208163
201.000000	1.373447
200.000000	1.589805
