PE UV       SUBTECH     SPECTRUM    ASCII       PEDS        4.00        
   -1
KI5-04B_1CM.Sample.Raw.asc
11/08/25
11:06:40.00
11/08/25
11:06:40.00
Hermanni Kaartokallio

200.000000
1
Lambda 650
650N8121101
PerkinElmer UV WinLab 6.0.2.0723 / 1.61.00 Lambda 650

0
0
2
0
0
UV/VIS
1
1
1
uv/vis/nir detector
0
0
0
0
Fix
 
0
0.24
0
0
0
 
 
 
0
 
0
319.2
0
Front
100
 
 
 
0
0
0
 
0
 
 
 
0
 
 
0
0
0
0
0
 
 
 
 
0
0
#HDR
-1
-1
#GR
nm
A
1.0
0.0
800.000000
-1.000000
601
8
1.551542
0.032568
#DATA
800.000000	0.039896
799.000000	0.039940
798.000000	0.040176
797.000000	0.040143
796.000000	0.040229
795.000000	0.040309
794.000000	0.040417
793.000000	0.040317
792.000000	0.040500
791.000000	0.040640
790.000000	0.040704
789.000000	0.040763
788.000000	0.040976
787.000000	0.041076
786.000000	0.040944
785.000000	0.041105
784.000000	0.041414
783.000000	0.041430
782.000000	0.041499
781.000000	0.041561
780.000000	0.041736
779.000000	0.041899
778.000000	0.042042
777.000000	0.042345
776.000000	0.042500
775.000000	0.042696
774.000000	0.042741
773.000000	0.042833
772.000000	0.042945
771.000000	0.043006
770.000000	0.043255
769.000000	0.043304
768.000000	0.043271
767.000000	0.043240
766.000000	0.043266
765.000000	0.043313
764.000000	0.043231
763.000000	0.043256
762.000000	0.043238
761.000000	0.043201
760.000000	0.043047
759.000000	0.043083
758.000000	0.042990
757.000000	0.042869
756.000000	0.043080
755.000000	0.043246
754.000000	0.043388
753.000000	0.043263
752.000000	0.043349
751.000000	0.043332
750.000000	0.043055
749.000000	0.042925
748.000000	0.043104
747.000000	0.043059
746.000000	0.042954
745.000000	0.042975
744.000000	0.042939
743.000000	0.042669
742.000000	0.042682
741.000000	0.042652
740.000000	0.042574
739.000000	0.042441
738.000000	0.042161
737.000000	0.041918
736.000000	0.041648
735.000000	0.041242
734.000000	0.040923
733.000000	0.040566
732.000000	0.039942
731.000000	0.039299
730.000000	0.038873
729.000000	0.038402
728.000000	0.037880
727.000000	0.037555
726.000000	0.037316
725.000000	0.036885
724.000000	0.036536
723.000000	0.036355
722.000000	0.036184
721.000000	0.035849
720.000000	0.035605
719.000000	0.035406
718.000000	0.035263
717.000000	0.035089
716.000000	0.035000
715.000000	0.034929
714.000000	0.034700
713.000000	0.034511
712.000000	0.034494
711.000000	0.034397
710.000000	0.034282
709.000000	0.034227
708.000000	0.034318
707.000000	0.034271
706.000000	0.034048
705.000000	0.034001
704.000000	0.033964
703.000000	0.033804
702.000000	0.033562
701.000000	0.033426
700.000000	0.033324
699.000000	0.033188
698.000000	0.033139
697.000000	0.033105
696.000000	0.032909
695.000000	0.032765
694.000000	0.032848
693.000000	0.032808
692.000000	0.032664
691.000000	0.032698
690.000000	0.032697
689.000000	0.032683
688.000000	0.032672
687.000000	0.032689
686.000000	0.032725
685.000000	0.032686
684.000000	0.032742
683.000000	0.032847
682.000000	0.032808
681.000000	0.032735
680.000000	0.032835
679.000000	0.032889
678.000000	0.032876
677.000000	0.032883
676.000000	0.032888
675.000000	0.032846
674.000000	0.032821
673.000000	0.032878
672.000000	0.032965
671.000000	0.032957
670.000000	0.032936
669.000000	0.032997
668.000000	0.033016
667.000000	0.032925
666.000000	0.032917
665.000000	0.032935
664.000000	0.032815
663.000000	0.032785
662.000000	0.032841
661.000000	0.032805
660.000000	0.032716
659.000000	0.032754
658.000000	0.032649
657.000000	0.032579
656.000000	0.032582
655.000000	0.032598
654.000000	0.032646
653.000000	0.032615
652.000000	0.032568
651.000000	0.032688
650.000000	0.032793
649.000000	0.032785
648.000000	0.032900
647.000000	0.032945
646.000000	0.032923
645.000000	0.033000
644.000000	0.033218
643.000000	0.033312
642.000000	0.033314
641.000000	0.033420
640.000000	0.033551
639.000000	0.033593
638.000000	0.033560
637.000000	0.033647
636.000000	0.033707
635.000000	0.033785
634.000000	0.033666
633.000000	0.033841
632.000000	0.033901
631.000000	0.033885
630.000000	0.033866
629.000000	0.033940
628.000000	0.033859
627.000000	0.033753
626.000000	0.033876
625.000000	0.033862
624.000000	0.033760
623.000000	0.033768
622.000000	0.033747
621.000000	0.033820
620.000000	0.033819
619.000000	0.033829
618.000000	0.033938
617.000000	0.033880
616.000000	0.033763
615.000000	0.033875
614.000000	0.033974
613.000000	0.033804
612.000000	0.033852
611.000000	0.034023
610.000000	0.034086
609.000000	0.033897
608.000000	0.034047
607.000000	0.034158
606.000000	0.034231
605.000000	0.034188
604.000000	0.034141
603.000000	0.034217
602.000000	0.034164
601.000000	0.034167
600.000000	0.034242
599.000000	0.034297
598.000000	0.034100
597.000000	0.034272
596.000000	0.034350
595.000000	0.034320
594.000000	0.034178
593.000000	0.034424
592.000000	0.034416
591.000000	0.034300
590.000000	0.034242
589.000000	0.034255
588.000000	0.034171
587.000000	0.034113
586.000000	0.034346
585.000000	0.034417
584.000000	0.034451
583.000000	0.034425
582.000000	0.034533
581.000000	0.034733
580.000000	0.034733
579.000000	0.034719
578.000000	0.034854
577.000000	0.034918
576.000000	0.034915
575.000000	0.035104
574.000000	0.035182
573.000000	0.035020
572.000000	0.035211
571.000000	0.035332
570.000000	0.035360
569.000000	0.035435
568.000000	0.035494
567.000000	0.035612
566.000000	0.035593
565.000000	0.035676
564.000000	0.035820
563.000000	0.035867
562.000000	0.035917
561.000000	0.035954
560.000000	0.035977
559.000000	0.035971
558.000000	0.036117
557.000000	0.036191
556.000000	0.036308
555.000000	0.036221
554.000000	0.036291
553.000000	0.036436
552.000000	0.036441
551.000000	0.036400
550.000000	0.036581
549.000000	0.036579
548.000000	0.036450
547.000000	0.036501
546.000000	0.036676
545.000000	0.036635
544.000000	0.036538
543.000000	0.036623
542.000000	0.036666
541.000000	0.036607
540.000000	0.036641
539.000000	0.036702
538.000000	0.036679
537.000000	0.036640
536.000000	0.036730
535.000000	0.036815
534.000000	0.036782
533.000000	0.036813
532.000000	0.036824
531.000000	0.036797
530.000000	0.036639
529.000000	0.036706
528.000000	0.036705
527.000000	0.036735
526.000000	0.036743
525.000000	0.036751
524.000000	0.036729
523.000000	0.036703
522.000000	0.036816
521.000000	0.036878
520.000000	0.036830
519.000000	0.036702
518.000000	0.036765
517.000000	0.036867
516.000000	0.036845
515.000000	0.036872
514.000000	0.036962
513.000000	0.036970
512.000000	0.036973
511.000000	0.037061
510.000000	0.037142
509.000000	0.037135
508.000000	0.037131
507.000000	0.037196
506.000000	0.037261
505.000000	0.037357
504.000000	0.037507
503.000000	0.037560
502.000000	0.037572
501.000000	0.037510
500.000000	0.037584
499.000000	0.037823
498.000000	0.037881
497.000000	0.037900
496.000000	0.038028
495.000000	0.038137
494.000000	0.038209
493.000000	0.038325
492.000000	0.038466
491.000000	0.038573
490.000000	0.038660
489.000000	0.038779
488.000000	0.038905
487.000000	0.038995
486.000000	0.039172
485.000000	0.039368
484.000000	0.039453
483.000000	0.039464
482.000000	0.039664
481.000000	0.039851
480.000000	0.039828
479.000000	0.039843
478.000000	0.040003
477.000000	0.040190
476.000000	0.040209
475.000000	0.040325
474.000000	0.040577
473.000000	0.040659
472.000000	0.040674
471.000000	0.040755
470.000000	0.040964
469.000000	0.041140
468.000000	0.041244
467.000000	0.041426
466.000000	0.041662
465.000000	0.041736
464.000000	0.041883
463.000000	0.042169
462.000000	0.042246
461.000000	0.042318
460.000000	0.042599
459.000000	0.042770
458.000000	0.042864
457.000000	0.043041
456.000000	0.043310
455.000000	0.043493
454.000000	0.043591
453.000000	0.043705
452.000000	0.043928
451.000000	0.044025
450.000000	0.044138
449.000000	0.044417
448.000000	0.044598
447.000000	0.044638
446.000000	0.044869
445.000000	0.045210
444.000000	0.045355
443.000000	0.045440
442.000000	0.045684
441.000000	0.045845
440.000000	0.045922
439.000000	0.046167
438.000000	0.046310
437.000000	0.046472
436.000000	0.046543
435.000000	0.046629
434.000000	0.047001
433.000000	0.047082
432.000000	0.047102
431.000000	0.047373
430.000000	0.047615
429.000000	0.047607
428.000000	0.047737
427.000000	0.048059
426.000000	0.048180
425.000000	0.048326
424.000000	0.048511
423.000000	0.048693
422.000000	0.048720
421.000000	0.048868
420.000000	0.049144
419.000000	0.049364
418.000000	0.049425
417.000000	0.049577
416.000000	0.049883
415.000000	0.050054
414.000000	0.050220
413.000000	0.050449
412.000000	0.050786
411.000000	0.050919
410.000000	0.051093
409.000000	0.051427
408.000000	0.051744
407.000000	0.051912
406.000000	0.052249
405.000000	0.052542
404.000000	0.052702
403.000000	0.053146
402.000000	0.053440
401.000000	0.053824
400.000000	0.054006
399.000000	0.054271
398.000000	0.054723
397.000000	0.055093
396.000000	0.055393
395.000000	0.055701
394.000000	0.056174
393.000000	0.056384
392.000000	0.056702
391.000000	0.057279
390.000000	0.057692
389.000000	0.057942
388.000000	0.058410
387.000000	0.058801
386.000000	0.059253
385.000000	0.059595
384.000000	0.060107
383.000000	0.060677
382.000000	0.060844
381.000000	0.061242
380.000000	0.061946
379.000000	0.062402
378.000000	0.062817
377.000000	0.063243
376.000000	0.063850
375.000000	0.064322
374.000000	0.064799
373.000000	0.065476
372.000000	0.066012
371.000000	0.066369
370.000000	0.067029
369.000000	0.067855
368.000000	0.068323
367.000000	0.068821
366.000000	0.069507
365.000000	0.070191
364.000000	0.070614
363.000000	0.071404
362.000000	0.072100
361.000000	0.072761
360.000000	0.073381
359.000000	0.074057
358.000000	0.074758
357.000000	0.075470
356.000000	0.076115
355.000000	0.077024
354.000000	0.077718
353.000000	0.078323
352.000000	0.079077
351.000000	0.080064
350.000000	0.080700
349.000000	0.081418
348.000000	0.082337
347.000000	0.083084
346.000000	0.083826
345.000000	0.084694
344.000000	0.085663
343.000000	0.086401
342.000000	0.087067
341.000000	0.088046
340.000000	0.088939
339.000000	0.089812
338.000000	0.090594
337.000000	0.091738
336.000000	0.092657
335.000000	0.093418
334.000000	0.094463
333.000000	0.095503
332.000000	0.096487
331.000000	0.097403
330.000000	0.098502
329.000000	0.099502
328.000000	0.100457
327.000000	0.101457
326.000000	0.102708
325.000000	0.103736
324.000000	0.104732
323.000000	0.105819
322.000000	0.107079
321.000000	0.108192
320.000000	0.109323
319.000000	0.110624
318.000000	0.111844
317.000000	0.112931
316.000000	0.114168
315.000000	0.115420
314.000000	0.116725
313.000000	0.118173
312.000000	0.119567
311.000000	0.120935
310.000000	0.122428
309.000000	0.123981
308.000000	0.125425
307.000000	0.126844
306.000000	0.128390
305.000000	0.130112
304.000000	0.131579
303.000000	0.133320
302.000000	0.135204
301.000000	0.136852
300.000000	0.138425
299.000000	0.140254
298.000000	0.142108
297.000000	0.143945
296.000000	0.145903
295.000000	0.147926
294.000000	0.149874
293.000000	0.151780
292.000000	0.153874
291.000000	0.156066
290.000000	0.158199
289.000000	0.160304
288.000000	0.162512
287.000000	0.164816
286.000000	0.166969
285.000000	0.169195
284.000000	0.171667
283.000000	0.173994
282.000000	0.176212
281.000000	0.178542
280.000000	0.180908
279.000000	0.183084
278.000000	0.185281
277.000000	0.187718
276.000000	0.190104
275.000000	0.192379
274.000000	0.194891
273.000000	0.197439
272.000000	0.199660
271.000000	0.201893
270.000000	0.204298
269.000000	0.206595
268.000000	0.208804
267.000000	0.211088
266.000000	0.213399
265.000000	0.215523
264.000000	0.217457
263.000000	0.219467
262.000000	0.221446
261.000000	0.223299
260.000000	0.225176
259.000000	0.227083
258.000000	0.228903
257.000000	0.230547
256.000000	0.232261
255.000000	0.234007
254.000000	0.235644
253.000000	0.237326
252.000000	0.239219
251.000000	0.241029
250.000000	0.242701
249.000000	0.244645
248.000000	0.246812
247.000000	0.248946
246.000000	0.251087
245.000000	0.253488
244.000000	0.256157
243.000000	0.258919
242.000000	0.261680
241.000000	0.264801
240.000000	0.267991
239.000000	0.271246
238.000000	0.274919
237.000000	0.278738
236.000000	0.282526
235.000000	0.286576
234.000000	0.290875
233.000000	0.295133
232.000000	0.299706
231.000000	0.304420
230.000000	0.309059
229.000000	0.313854
228.000000	0.318506
227.000000	0.323559
226.000000	0.328790
225.000000	0.334066
224.000000	0.339584
223.000000	0.345731
222.000000	0.352190
221.000000	0.359062
220.000000	0.366854
219.000000	0.375432
218.000000	0.385195
217.000000	0.396237
216.000000	0.409131
215.000000	0.424155
214.000000	0.441677
213.000000	0.462452
212.000000	0.486593
211.000000	0.514701
210.000000	0.547373
209.000000	0.585198
208.000000	0.629520
207.000000	0.681243
206.000000	0.742087
205.000000	0.814462
204.000000	0.902167
203.000000	1.010381
202.000000	1.146583
201.000000	1.321775
200.000000	1.551542
