PE UV       SUBTECH     SPECTRUM    ASCII       PEDS        4.00        
   -1
KI5-03B_1CM.Sample.Raw.asc
11/08/25
12:53:25.00
11/08/25
12:53:25.00
Hermanni Kaartokallio

200.000000
1
Lambda 650
650N8121101
PerkinElmer UV WinLab 6.0.2.0723 / 1.61.00 Lambda 650

0
0
2
0
0
UV/VIS
1
1
1
uv/vis/nir detector
0
0
0
0
Fix
 
0
0.24
0
0
0
 
 
 
0
 
0
319.2
0
Front
100
 
 
 
0
0
0
 
0
 
 
 
0
 
 
0
0
0
0
0
 
 
 
 
0
0
#HDR
-1
-1
#GR
nm
A
1.0
0.0
800.000000
-1.000000
601
8
1.559331
0.031537
#DATA
800.000000	0.038810
799.000000	0.039089
798.000000	0.039346
797.000000	0.039159
796.000000	0.039222
795.000000	0.039330
794.000000	0.039547
793.000000	0.039301
792.000000	0.039678
791.000000	0.039768
790.000000	0.039621
789.000000	0.039565
788.000000	0.039683
787.000000	0.039849
786.000000	0.039948
785.000000	0.040025
784.000000	0.040281
783.000000	0.040118
782.000000	0.040159
781.000000	0.040380
780.000000	0.040704
779.000000	0.040758
778.000000	0.040781
777.000000	0.040972
776.000000	0.041147
775.000000	0.041286
774.000000	0.041537
773.000000	0.041548
772.000000	0.041626
771.000000	0.041663
770.000000	0.041818
769.000000	0.041934
768.000000	0.041913
767.000000	0.042028
766.000000	0.042145
765.000000	0.042025
764.000000	0.041860
763.000000	0.041840
762.000000	0.041952
761.000000	0.041850
760.000000	0.041644
759.000000	0.041671
758.000000	0.041606
757.000000	0.041560
756.000000	0.041655
755.000000	0.041642
754.000000	0.041554
753.000000	0.041437
752.000000	0.041501
751.000000	0.041556
750.000000	0.041514
749.000000	0.041462
748.000000	0.041436
747.000000	0.041433
746.000000	0.041421
745.000000	0.041444
744.000000	0.041502
743.000000	0.041403
742.000000	0.041288
741.000000	0.041333
740.000000	0.041220
739.000000	0.041102
738.000000	0.041032
737.000000	0.040828
736.000000	0.040434
735.000000	0.040027
734.000000	0.039720
733.000000	0.039462
732.000000	0.039033
731.000000	0.038557
730.000000	0.038124
729.000000	0.037666
728.000000	0.037158
727.000000	0.036780
726.000000	0.036552
725.000000	0.036094
724.000000	0.035673
723.000000	0.035429
722.000000	0.035230
721.000000	0.034986
720.000000	0.034841
719.000000	0.034648
718.000000	0.034473
717.000000	0.034295
716.000000	0.034063
715.000000	0.034012
714.000000	0.033813
713.000000	0.033547
712.000000	0.033477
711.000000	0.033464
710.000000	0.033314
709.000000	0.033257
708.000000	0.033390
707.000000	0.033245
706.000000	0.032957
705.000000	0.032895
704.000000	0.032846
703.000000	0.032716
702.000000	0.032603
701.000000	0.032431
700.000000	0.032252
699.000000	0.032124
698.000000	0.032036
697.000000	0.032019
696.000000	0.031893
695.000000	0.031704
694.000000	0.031714
693.000000	0.031693
692.000000	0.031679
691.000000	0.031719
690.000000	0.031708
689.000000	0.031643
688.000000	0.031588
687.000000	0.031658
686.000000	0.031631
685.000000	0.031537
684.000000	0.031568
683.000000	0.031663
682.000000	0.031747
681.000000	0.031740
680.000000	0.031728
679.000000	0.031752
678.000000	0.031756
677.000000	0.031821
676.000000	0.031944
675.000000	0.031916
674.000000	0.031809
673.000000	0.031874
672.000000	0.032003
671.000000	0.031952
670.000000	0.031953
669.000000	0.032080
668.000000	0.032072
667.000000	0.031952
666.000000	0.031941
665.000000	0.031922
664.000000	0.032098
663.000000	0.031973
662.000000	0.031973
661.000000	0.032102
660.000000	0.031947
659.000000	0.031924
658.000000	0.032009
657.000000	0.032003
656.000000	0.031825
655.000000	0.031870
654.000000	0.032019
653.000000	0.031921
652.000000	0.031936
651.000000	0.032003
650.000000	0.032145
649.000000	0.032189
648.000000	0.032232
647.000000	0.032174
646.000000	0.032152
645.000000	0.032001
644.000000	0.032314
643.000000	0.032512
642.000000	0.032687
641.000000	0.032810
640.000000	0.033086
639.000000	0.033024
638.000000	0.033029
637.000000	0.033075
636.000000	0.033154
635.000000	0.033188
634.000000	0.033233
633.000000	0.033399
632.000000	0.033109
631.000000	0.032897
630.000000	0.032844
629.000000	0.032920
628.000000	0.033024
627.000000	0.033006
626.000000	0.032982
625.000000	0.032980
624.000000	0.032960
623.000000	0.032995
622.000000	0.033260
621.000000	0.033281
620.000000	0.033243
619.000000	0.033143
618.000000	0.033193
617.000000	0.033141
616.000000	0.033180
615.000000	0.033181
614.000000	0.033213
613.000000	0.033108
612.000000	0.033100
611.000000	0.033197
610.000000	0.033078
609.000000	0.032862
608.000000	0.032921
607.000000	0.033051
606.000000	0.033123
605.000000	0.033133
604.000000	0.033272
603.000000	0.033377
602.000000	0.033156
601.000000	0.033234
600.000000	0.033392
599.000000	0.033357
598.000000	0.033387
597.000000	0.033462
596.000000	0.033421
595.000000	0.033364
594.000000	0.033193
593.000000	0.033528
592.000000	0.033544
591.000000	0.033630
590.000000	0.033520
589.000000	0.033670
588.000000	0.033755
587.000000	0.033695
586.000000	0.033857
585.000000	0.034144
584.000000	0.034176
583.000000	0.034078
582.000000	0.034350
581.000000	0.034331
580.000000	0.034251
579.000000	0.034436
578.000000	0.034444
577.000000	0.034585
576.000000	0.034437
575.000000	0.034682
574.000000	0.034826
573.000000	0.034801
572.000000	0.034881
571.000000	0.034916
570.000000	0.034976
569.000000	0.035035
568.000000	0.035155
567.000000	0.035340
566.000000	0.035288
565.000000	0.035212
564.000000	0.035431
563.000000	0.035471
562.000000	0.035514
561.000000	0.035565
560.000000	0.035781
559.000000	0.035665
558.000000	0.035662
557.000000	0.035771
556.000000	0.035791
555.000000	0.035826
554.000000	0.035927
553.000000	0.036034
552.000000	0.035971
551.000000	0.035937
550.000000	0.036127
549.000000	0.036136
548.000000	0.036094
547.000000	0.036077
546.000000	0.036108
545.000000	0.036117
544.000000	0.036053
543.000000	0.036184
542.000000	0.036275
541.000000	0.035920
540.000000	0.035861
539.000000	0.035941
538.000000	0.035970
537.000000	0.035904
536.000000	0.036001
535.000000	0.036054
534.000000	0.035937
533.000000	0.035914
532.000000	0.035977
531.000000	0.036040
530.000000	0.035975
529.000000	0.035906
528.000000	0.035852
527.000000	0.035857
526.000000	0.035884
525.000000	0.035937
524.000000	0.036025
523.000000	0.035921
522.000000	0.035951
521.000000	0.036041
520.000000	0.036014
519.000000	0.036001
518.000000	0.036128
517.000000	0.036091
516.000000	0.036035
515.000000	0.036030
514.000000	0.036124
513.000000	0.036206
512.000000	0.036273
511.000000	0.036384
510.000000	0.036504
509.000000	0.036427
508.000000	0.036388
507.000000	0.036544
506.000000	0.036725
505.000000	0.036688
504.000000	0.036648
503.000000	0.036850
502.000000	0.037057
501.000000	0.037134
500.000000	0.037252
499.000000	0.037391
498.000000	0.037430
497.000000	0.037441
496.000000	0.037592
495.000000	0.037835
494.000000	0.037961
493.000000	0.038020
492.000000	0.038119
491.000000	0.038214
490.000000	0.038293
489.000000	0.038428
488.000000	0.038616
487.000000	0.038688
486.000000	0.038771
485.000000	0.038986
484.000000	0.039116
483.000000	0.039213
482.000000	0.039357
481.000000	0.039457
480.000000	0.039457
479.000000	0.039512
478.000000	0.039662
477.000000	0.039901
476.000000	0.039973
475.000000	0.039983
474.000000	0.040115
473.000000	0.040324
472.000000	0.040398
471.000000	0.040538
470.000000	0.040767
469.000000	0.040845
468.000000	0.040890
467.000000	0.041072
466.000000	0.041288
465.000000	0.041451
464.000000	0.041630
463.000000	0.041828
462.000000	0.041909
461.000000	0.041971
460.000000	0.042234
459.000000	0.042493
458.000000	0.042585
457.000000	0.042643
456.000000	0.042879
455.000000	0.043102
454.000000	0.043196
453.000000	0.043375
452.000000	0.043620
451.000000	0.043656
450.000000	0.043713
449.000000	0.043972
448.000000	0.044198
447.000000	0.044401
446.000000	0.044554
445.000000	0.044793
444.000000	0.044923
443.000000	0.045020
442.000000	0.045184
441.000000	0.045570
440.000000	0.045477
439.000000	0.045618
438.000000	0.045873
437.000000	0.046010
436.000000	0.046022
435.000000	0.046254
434.000000	0.046558
433.000000	0.046622
432.000000	0.046664
431.000000	0.046835
430.000000	0.047069
429.000000	0.047195
428.000000	0.047345
427.000000	0.047579
426.000000	0.047693
425.000000	0.047843
424.000000	0.048001
423.000000	0.048293
422.000000	0.048409
421.000000	0.048376
420.000000	0.048570
419.000000	0.048762
418.000000	0.048895
417.000000	0.049071
416.000000	0.049442
415.000000	0.049503
414.000000	0.049617
413.000000	0.049890
412.000000	0.050174
411.000000	0.050499
410.000000	0.050630
409.000000	0.050886
408.000000	0.051091
407.000000	0.051316
406.000000	0.051606
405.000000	0.052076
404.000000	0.052246
403.000000	0.052327
402.000000	0.052752
401.000000	0.053208
400.000000	0.053407
399.000000	0.053822
398.000000	0.054116
397.000000	0.054444
396.000000	0.054681
395.000000	0.055016
394.000000	0.055393
393.000000	0.055935
392.000000	0.056156
391.000000	0.056512
390.000000	0.057072
389.000000	0.057503
388.000000	0.057727
387.000000	0.058241
386.000000	0.058681
385.000000	0.058895
384.000000	0.059301
383.000000	0.059821
382.000000	0.060192
381.000000	0.060617
380.000000	0.061162
379.000000	0.061599
378.000000	0.062033
377.000000	0.062436
376.000000	0.063025
375.000000	0.063484
374.000000	0.063921
373.000000	0.064535
372.000000	0.065132
371.000000	0.065617
370.000000	0.066173
369.000000	0.066848
368.000000	0.067399
367.000000	0.067875
366.000000	0.068484
365.000000	0.069357
364.000000	0.069785
363.000000	0.070376
362.000000	0.071029
361.000000	0.071745
360.000000	0.072369
359.000000	0.073077
358.000000	0.073771
357.000000	0.074318
356.000000	0.074969
355.000000	0.075842
354.000000	0.076684
353.000000	0.077374
352.000000	0.078034
351.000000	0.078904
350.000000	0.079560
349.000000	0.080262
348.000000	0.081107
347.000000	0.081992
346.000000	0.082767
345.000000	0.083432
344.000000	0.084351
343.000000	0.085122
342.000000	0.085883
341.000000	0.086841
340.000000	0.087731
339.000000	0.088470
338.000000	0.089219
337.000000	0.090289
336.000000	0.091321
335.000000	0.092212
334.000000	0.093069
333.000000	0.093997
332.000000	0.095028
331.000000	0.096000
330.000000	0.096993
329.000000	0.098011
328.000000	0.098989
327.000000	0.099904
326.000000	0.101046
325.000000	0.102075
324.000000	0.103137
323.000000	0.104265
322.000000	0.105381
321.000000	0.106426
320.000000	0.107531
319.000000	0.108809
318.000000	0.110004
317.000000	0.111130
316.000000	0.112546
315.000000	0.113716
314.000000	0.114875
313.000000	0.116321
312.000000	0.117674
311.000000	0.119160
310.000000	0.120683
309.000000	0.122047
308.000000	0.123356
307.000000	0.124804
306.000000	0.126301
305.000000	0.128035
304.000000	0.129605
303.000000	0.131119
302.000000	0.132821
301.000000	0.134518
300.000000	0.136103
299.000000	0.137857
298.000000	0.139772
297.000000	0.141527
296.000000	0.143296
295.000000	0.145221
294.000000	0.147212
293.000000	0.149310
292.000000	0.151421
291.000000	0.153460
290.000000	0.155551
289.000000	0.157656
288.000000	0.159832
287.000000	0.162160
286.000000	0.164398
285.000000	0.166515
284.000000	0.168902
283.000000	0.171247
282.000000	0.173382
281.000000	0.175726
280.000000	0.178159
279.000000	0.180310
278.000000	0.182462
277.000000	0.184825
276.000000	0.187242
275.000000	0.189607
274.000000	0.191940
273.000000	0.194393
272.000000	0.196745
271.000000	0.198978
270.000000	0.201310
269.000000	0.203698
268.000000	0.205963
267.000000	0.208163
266.000000	0.210321
265.000000	0.212396
264.000000	0.214383
263.000000	0.216445
262.000000	0.218494
261.000000	0.220345
260.000000	0.222098
259.000000	0.223931
258.000000	0.225689
257.000000	0.227467
256.000000	0.229215
255.000000	0.230829
254.000000	0.232588
253.000000	0.234216
252.000000	0.235923
251.000000	0.237756
250.000000	0.239580
249.000000	0.241359
248.000000	0.243285
247.000000	0.245490
246.000000	0.247603
245.000000	0.250004
244.000000	0.252624
243.000000	0.255317
242.000000	0.257969
241.000000	0.260944
240.000000	0.264137
239.000000	0.267582
238.000000	0.270940
237.000000	0.274521
236.000000	0.278163
235.000000	0.282114
234.000000	0.286114
233.000000	0.290317
232.000000	0.294729
231.000000	0.299131
230.000000	0.303614
229.000000	0.308435
228.000000	0.313134
227.000000	0.318074
226.000000	0.323020
225.000000	0.328243
224.000000	0.333799
223.000000	0.339819
222.000000	0.346282
221.000000	0.353287
220.000000	0.360894
219.000000	0.369380
218.000000	0.379210
217.000000	0.390341
216.000000	0.402972
215.000000	0.418104
214.000000	0.435805
213.000000	0.456462
212.000000	0.480667
211.000000	0.509180
210.000000	0.542132
209.000000	0.580123
208.000000	0.624491
207.000000	0.676490
206.000000	0.738305
205.000000	0.811258
204.000000	0.899773
203.000000	1.009357
202.000000	1.147719
201.000000	1.326370
200.000000	1.559331
