PE UV       SUBTECH     SPECTRUM    ASCII       PEDS        4.00        
   -1
KI5-04A_1CM.Sample.Raw.asc
11/08/25
12:57:44.00
11/08/25
12:57:44.00
Hermanni Kaartokallio

200.000000
1
Lambda 650
650N8121101
PerkinElmer UV WinLab 6.0.2.0723 / 1.61.00 Lambda 650

0
0
2
0
0
UV/VIS
1
1
1
uv/vis/nir detector
0
0
0
0
Fix
 
0
0.24
0
0
0
 
 
 
0
 
0
319.2
0
Front
100
 
 
 
0
0
0
 
0
 
 
 
0
 
 
0
0
0
0
0
 
 
 
 
0
0
#HDR
-1
-1
#GR
nm
A
1.0
0.0
800.000000
-1.000000
601
8
1.568685
0.030948
#DATA
800.000000	0.038381
799.000000	0.038415
798.000000	0.038815
797.000000	0.038776
796.000000	0.038652
795.000000	0.038694
794.000000	0.038937
793.000000	0.038919
792.000000	0.039065
791.000000	0.039158
790.000000	0.039070
789.000000	0.039057
788.000000	0.039100
787.000000	0.039345
786.000000	0.039498
785.000000	0.039431
784.000000	0.039635
783.000000	0.039827
782.000000	0.039770
781.000000	0.039789
780.000000	0.040190
779.000000	0.040308
778.000000	0.040324
777.000000	0.040484
776.000000	0.040663
775.000000	0.040882
774.000000	0.040915
773.000000	0.041028
772.000000	0.041144
771.000000	0.041226
770.000000	0.041313
769.000000	0.041459
768.000000	0.041663
767.000000	0.041526
766.000000	0.041452
765.000000	0.041624
764.000000	0.041552
763.000000	0.041385
762.000000	0.041518
761.000000	0.041539
760.000000	0.041326
759.000000	0.041232
758.000000	0.041167
757.000000	0.041206
756.000000	0.041262
755.000000	0.041169
754.000000	0.041224
753.000000	0.041168
752.000000	0.041162
751.000000	0.041118
750.000000	0.041234
749.000000	0.041138
748.000000	0.041075
747.000000	0.041132
746.000000	0.041126
745.000000	0.041089
744.000000	0.041178
743.000000	0.041182
742.000000	0.041011
741.000000	0.040938
740.000000	0.040885
739.000000	0.040761
738.000000	0.040658
737.000000	0.040449
736.000000	0.040134
735.000000	0.039740
734.000000	0.039326
733.000000	0.038991
732.000000	0.038622
731.000000	0.037981
730.000000	0.037406
729.000000	0.036988
728.000000	0.036477
727.000000	0.036116
726.000000	0.035910
725.000000	0.035549
724.000000	0.035073
723.000000	0.034767
722.000000	0.034565
721.000000	0.034367
720.000000	0.034181
719.000000	0.033932
718.000000	0.033732
717.000000	0.033549
716.000000	0.033349
715.000000	0.033269
714.000000	0.033189
713.000000	0.032972
712.000000	0.032802
711.000000	0.032723
710.000000	0.032644
709.000000	0.032536
708.000000	0.032605
707.000000	0.032574
706.000000	0.032351
705.000000	0.032229
704.000000	0.032147
703.000000	0.032071
702.000000	0.031943
701.000000	0.031700
700.000000	0.031525
699.000000	0.031374
698.000000	0.031231
697.000000	0.031279
696.000000	0.031267
695.000000	0.031070
694.000000	0.030993
693.000000	0.030976
692.000000	0.030948
691.000000	0.030966
690.000000	0.030976
689.000000	0.030982
688.000000	0.030979
687.000000	0.031012
686.000000	0.031043
685.000000	0.031006
684.000000	0.031014
683.000000	0.031176
682.000000	0.031344
681.000000	0.031395
680.000000	0.031355
679.000000	0.031400
678.000000	0.031477
677.000000	0.031450
676.000000	0.031551
675.000000	0.031609
674.000000	0.031526
673.000000	0.031505
672.000000	0.031619
671.000000	0.031691
670.000000	0.031724
669.000000	0.031801
668.000000	0.031822
667.000000	0.031853
666.000000	0.031747
665.000000	0.031635
664.000000	0.031726
663.000000	0.031730
662.000000	0.031677
661.000000	0.031687
660.000000	0.031700
659.000000	0.031681
658.000000	0.031707
657.000000	0.031711
656.000000	0.031655
655.000000	0.031590
654.000000	0.031651
653.000000	0.031700
652.000000	0.031811
651.000000	0.031833
650.000000	0.031857
649.000000	0.031912
648.000000	0.031914
647.000000	0.031923
646.000000	0.032157
645.000000	0.032252
644.000000	0.032314
643.000000	0.032317
642.000000	0.032405
641.000000	0.032482
640.000000	0.032761
639.000000	0.032837
638.000000	0.032780
637.000000	0.032779
636.000000	0.032837
635.000000	0.032930
634.000000	0.033045
633.000000	0.033099
632.000000	0.033071
631.000000	0.033014
630.000000	0.033023
629.000000	0.032960
628.000000	0.033082
627.000000	0.032831
626.000000	0.032597
625.000000	0.032553
624.000000	0.032607
623.000000	0.032552
622.000000	0.032647
621.000000	0.032621
620.000000	0.032649
619.000000	0.032473
618.000000	0.032489
617.000000	0.032500
616.000000	0.032602
615.000000	0.032563
614.000000	0.032506
613.000000	0.032502
612.000000	0.032554
611.000000	0.032590
610.000000	0.032802
609.000000	0.032732
608.000000	0.032648
607.000000	0.032785
606.000000	0.032877
605.000000	0.032954
604.000000	0.032974
603.000000	0.033024
602.000000	0.033020
601.000000	0.032932
600.000000	0.033083
599.000000	0.033176
598.000000	0.033194
597.000000	0.033333
596.000000	0.033231
595.000000	0.033368
594.000000	0.033274
593.000000	0.033360
592.000000	0.033382
591.000000	0.033572
590.000000	0.033550
589.000000	0.033520
588.000000	0.033622
587.000000	0.033656
586.000000	0.033722
585.000000	0.033972
584.000000	0.033976
583.000000	0.033929
582.000000	0.033926
581.000000	0.034035
580.000000	0.034137
579.000000	0.034279
578.000000	0.034302
577.000000	0.034378
576.000000	0.034387
575.000000	0.034442
574.000000	0.034533
573.000000	0.034713
572.000000	0.034789
571.000000	0.034657
570.000000	0.034766
569.000000	0.034834
568.000000	0.034918
567.000000	0.035059
566.000000	0.035156
565.000000	0.035109
564.000000	0.035202
563.000000	0.035241
562.000000	0.035350
561.000000	0.035343
560.000000	0.035497
559.000000	0.035519
558.000000	0.035535
557.000000	0.035607
556.000000	0.035632
555.000000	0.035722
554.000000	0.035841
553.000000	0.035698
552.000000	0.035867
551.000000	0.035824
550.000000	0.035898
549.000000	0.035940
548.000000	0.035996
547.000000	0.035971
546.000000	0.035911
545.000000	0.035946
544.000000	0.035947
543.000000	0.035952
542.000000	0.036058
541.000000	0.036006
540.000000	0.035937
539.000000	0.035914
538.000000	0.035940
537.000000	0.035957
536.000000	0.036062
535.000000	0.036041
534.000000	0.035938
533.000000	0.035885
532.000000	0.035870
531.000000	0.035937
530.000000	0.036002
529.000000	0.035956
528.000000	0.035865
527.000000	0.035870
526.000000	0.035945
525.000000	0.035991
524.000000	0.036039
523.000000	0.035989
522.000000	0.036011
521.000000	0.036033
520.000000	0.036016
519.000000	0.036032
518.000000	0.036162
517.000000	0.036137
516.000000	0.036117
515.000000	0.036177
514.000000	0.036171
513.000000	0.036240
512.000000	0.036415
511.000000	0.036448
510.000000	0.036405
509.000000	0.036464
508.000000	0.036485
507.000000	0.036647
506.000000	0.036809
505.000000	0.036835
504.000000	0.036847
503.000000	0.036909
502.000000	0.036940
501.000000	0.037072
500.000000	0.037226
499.000000	0.037249
498.000000	0.037281
497.000000	0.037381
496.000000	0.037492
495.000000	0.037654
494.000000	0.037841
493.000000	0.037906
492.000000	0.037954
491.000000	0.038066
490.000000	0.038173
489.000000	0.038360
488.000000	0.038522
487.000000	0.038573
486.000000	0.038710
485.000000	0.038885
484.000000	0.038968
483.000000	0.039127
482.000000	0.039313
481.000000	0.039348
480.000000	0.039352
479.000000	0.039481
478.000000	0.039594
477.000000	0.039738
476.000000	0.039928
475.000000	0.040014
474.000000	0.040076
473.000000	0.040228
472.000000	0.040349
471.000000	0.040517
470.000000	0.040723
469.000000	0.040815
468.000000	0.040933
467.000000	0.041033
466.000000	0.041212
465.000000	0.041497
464.000000	0.041699
463.000000	0.041836
462.000000	0.041944
461.000000	0.042104
460.000000	0.042302
459.000000	0.042476
458.000000	0.042659
457.000000	0.042810
456.000000	0.042983
455.000000	0.043160
454.000000	0.043308
453.000000	0.043504
452.000000	0.043688
451.000000	0.043733
450.000000	0.043860
449.000000	0.044081
448.000000	0.044180
447.000000	0.044418
446.000000	0.044693
445.000000	0.044828
444.000000	0.044937
443.000000	0.045062
442.000000	0.045210
441.000000	0.045467
440.000000	0.045690
439.000000	0.045789
438.000000	0.045928
437.000000	0.046033
436.000000	0.046142
435.000000	0.046391
434.000000	0.046627
433.000000	0.046679
432.000000	0.046821
431.000000	0.046920
430.000000	0.047061
429.000000	0.047382
428.000000	0.047475
427.000000	0.047632
426.000000	0.047799
425.000000	0.048032
424.000000	0.048157
423.000000	0.048404
422.000000	0.048463
421.000000	0.048584
420.000000	0.048792
419.000000	0.048949
418.000000	0.049091
417.000000	0.049415
416.000000	0.049605
415.000000	0.049713
414.000000	0.049939
413.000000	0.050150
412.000000	0.050372
411.000000	0.050804
410.000000	0.050984
409.000000	0.051127
408.000000	0.051346
407.000000	0.051708
406.000000	0.052004
405.000000	0.052288
404.000000	0.052557
403.000000	0.052804
402.000000	0.053167
401.000000	0.053457
400.000000	0.053803
399.000000	0.054268
398.000000	0.054583
397.000000	0.054772
396.000000	0.055220
395.000000	0.055521
394.000000	0.055848
393.000000	0.056279
392.000000	0.056685
391.000000	0.057033
390.000000	0.057416
389.000000	0.057764
388.000000	0.058230
387.000000	0.058693
386.000000	0.059081
385.000000	0.059444
384.000000	0.059902
383.000000	0.060278
382.000000	0.060628
381.000000	0.061261
380.000000	0.061818
379.000000	0.062092
378.000000	0.062593
377.000000	0.063101
376.000000	0.063526
375.000000	0.064066
374.000000	0.064649
373.000000	0.065177
372.000000	0.065735
371.000000	0.066406
370.000000	0.066884
369.000000	0.067470
368.000000	0.068085
367.000000	0.068639
366.000000	0.069285
365.000000	0.070016
364.000000	0.070522
363.000000	0.071188
362.000000	0.071883
361.000000	0.072491
360.000000	0.073193
359.000000	0.073954
358.000000	0.074524
357.000000	0.075195
356.000000	0.075928
355.000000	0.076705
354.000000	0.077428
353.000000	0.078161
352.000000	0.079017
351.000000	0.079719
350.000000	0.080423
349.000000	0.081248
348.000000	0.082115
347.000000	0.082826
346.000000	0.083685
345.000000	0.084476
344.000000	0.085337
343.000000	0.086077
342.000000	0.086942
341.000000	0.087950
340.000000	0.088733
339.000000	0.089512
338.000000	0.090333
337.000000	0.091421
336.000000	0.092311
335.000000	0.093265
334.000000	0.094262
333.000000	0.095147
332.000000	0.096149
331.000000	0.097152
330.000000	0.098149
329.000000	0.099258
328.000000	0.100284
327.000000	0.101199
326.000000	0.102345
325.000000	0.103303
324.000000	0.104383
323.000000	0.105565
322.000000	0.106646
321.000000	0.107815
320.000000	0.108992
319.000000	0.110318
318.000000	0.111442
317.000000	0.112725
316.000000	0.114053
315.000000	0.115334
314.000000	0.116577
313.000000	0.117871
312.000000	0.119299
311.000000	0.120836
310.000000	0.122413
309.000000	0.123857
308.000000	0.125280
307.000000	0.126819
306.000000	0.128412
305.000000	0.130077
304.000000	0.131672
303.000000	0.133419
302.000000	0.135226
301.000000	0.136943
300.000000	0.138598
299.000000	0.140465
298.000000	0.142412
297.000000	0.144215
296.000000	0.146221
295.000000	0.148225
294.000000	0.150159
293.000000	0.152298
292.000000	0.154555
291.000000	0.156633
290.000000	0.158682
289.000000	0.160974
288.000000	0.163230
287.000000	0.165608
286.000000	0.167933
285.000000	0.170157
284.000000	0.172544
283.000000	0.174852
282.000000	0.177136
281.000000	0.179559
280.000000	0.181880
279.000000	0.184008
278.000000	0.186255
277.000000	0.188646
276.000000	0.191003
275.000000	0.193489
274.000000	0.196079
273.000000	0.198376
272.000000	0.200597
271.000000	0.202917
270.000000	0.205249
269.000000	0.207565
268.000000	0.209843
267.000000	0.212094
266.000000	0.214184
265.000000	0.216140
264.000000	0.218169
263.000000	0.220282
262.000000	0.222232
261.000000	0.223944
260.000000	0.225746
259.000000	0.227545
258.000000	0.229315
257.000000	0.231047
256.000000	0.232794
255.000000	0.234299
254.000000	0.235871
253.000000	0.237606
252.000000	0.239340
251.000000	0.241157
250.000000	0.242915
249.000000	0.244673
248.000000	0.246727
247.000000	0.248818
246.000000	0.250972
245.000000	0.253576
244.000000	0.256240
243.000000	0.258798
242.000000	0.261561
241.000000	0.264642
240.000000	0.267798
239.000000	0.271226
238.000000	0.274799
237.000000	0.278420
236.000000	0.282050
235.000000	0.286020
234.000000	0.290192
233.000000	0.294645
232.000000	0.299262
231.000000	0.303900
230.000000	0.308712
229.000000	0.313479
228.000000	0.318375
227.000000	0.323478
226.000000	0.328725
225.000000	0.334076
224.000000	0.339774
223.000000	0.346127
222.000000	0.352784
221.000000	0.359948
220.000000	0.367929
219.000000	0.376673
218.000000	0.386585
217.000000	0.397640
216.000000	0.410722
215.000000	0.426082
214.000000	0.443938
213.000000	0.464792
212.000000	0.489471
211.000000	0.517891
210.000000	0.550946
209.000000	0.589196
208.000000	0.633828
207.000000	0.685818
206.000000	0.747681
205.000000	0.820953
204.000000	0.909539
203.000000	1.019159
202.000000	1.157983
201.000000	1.336661
200.000000	1.568685
