PE UV       SUBTECH     SPECTRUM    ASCII       PEDS        4.00        
   -1
KI5-03A_1CM.Sample.Raw.asc
11/08/25
12:48:30.00
11/08/25
12:48:30.00
Hermanni Kaartokallio

200.000000
1
Lambda 650
650N8121101
PerkinElmer UV WinLab 6.0.2.0723 / 1.61.00 Lambda 650

0
0
2
0
0
UV/VIS
1
1
1
uv/vis/nir detector
0
0
0
0
Fix
 
0
0.24
0
0
0
 
 
 
0
 
0
319.2
0
Front
100
 
 
 
0
0
0
 
0
 
 
 
0
 
 
0
0
0
0
0
 
 
 
 
0
0
#HDR
-1
-1
#GR
nm
A
1.0
0.0
800.000000
-1.000000
601
8
1.568321
0.032288
#DATA
800.000000	0.039816
799.000000	0.040042
798.000000	0.040250
797.000000	0.040278
796.000000	0.040198
795.000000	0.040261
794.000000	0.040481
793.000000	0.040502
792.000000	0.040477
791.000000	0.040600
790.000000	0.040591
789.000000	0.040511
788.000000	0.040583
787.000000	0.040663
786.000000	0.040903
785.000000	0.040757
784.000000	0.041058
783.000000	0.041200
782.000000	0.041291
781.000000	0.041330
780.000000	0.041645
779.000000	0.041886
778.000000	0.041958
777.000000	0.041989
776.000000	0.042213
775.000000	0.042337
774.000000	0.042415
773.000000	0.042508
772.000000	0.042561
771.000000	0.042736
770.000000	0.042847
769.000000	0.042884
768.000000	0.043049
767.000000	0.043011
766.000000	0.042848
765.000000	0.042935
764.000000	0.042827
763.000000	0.042741
762.000000	0.042812
761.000000	0.042778
760.000000	0.042590
759.000000	0.042477
758.000000	0.042455
757.000000	0.042456
756.000000	0.042547
755.000000	0.042442
754.000000	0.042433
753.000000	0.042391
752.000000	0.042381
751.000000	0.042401
750.000000	0.042445
749.000000	0.042413
748.000000	0.042339
747.000000	0.042356
746.000000	0.042457
745.000000	0.042437
744.000000	0.042473
743.000000	0.042445
742.000000	0.042345
741.000000	0.042250
740.000000	0.042203
739.000000	0.042197
738.000000	0.042072
737.000000	0.041865
736.000000	0.041495
735.000000	0.041039
734.000000	0.040689
733.000000	0.040356
732.000000	0.039948
731.000000	0.039379
730.000000	0.038753
729.000000	0.038292
728.000000	0.037817
727.000000	0.037445
726.000000	0.037153
725.000000	0.036842
724.000000	0.036471
723.000000	0.036133
722.000000	0.035919
721.000000	0.035679
720.000000	0.035559
719.000000	0.035248
718.000000	0.034979
717.000000	0.034849
716.000000	0.034655
715.000000	0.034574
714.000000	0.034480
713.000000	0.034277
712.000000	0.034136
711.000000	0.034066
710.000000	0.033965
709.000000	0.033868
708.000000	0.033953
707.000000	0.033907
706.000000	0.033681
705.000000	0.033525
704.000000	0.033414
703.000000	0.033351
702.000000	0.033223
701.000000	0.032962
700.000000	0.032778
699.000000	0.032726
698.000000	0.032648
697.000000	0.032633
696.000000	0.032585
695.000000	0.032467
694.000000	0.032400
693.000000	0.032339
692.000000	0.032288
691.000000	0.032314
690.000000	0.032387
689.000000	0.032422
688.000000	0.032401
687.000000	0.032376
686.000000	0.032382
685.000000	0.032405
684.000000	0.032394
683.000000	0.032460
682.000000	0.032570
681.000000	0.032664
680.000000	0.032647
679.000000	0.032660
678.000000	0.032711
677.000000	0.032749
676.000000	0.032835
675.000000	0.032859
674.000000	0.032806
673.000000	0.032870
672.000000	0.032951
671.000000	0.032965
670.000000	0.033015
669.000000	0.033077
668.000000	0.033072
667.000000	0.032999
666.000000	0.032981
665.000000	0.032925
664.000000	0.033047
663.000000	0.033095
662.000000	0.033012
661.000000	0.032990
660.000000	0.032965
659.000000	0.032945
658.000000	0.032974
657.000000	0.033014
656.000000	0.032946
655.000000	0.032895
654.000000	0.032926
653.000000	0.032875
652.000000	0.032945
651.000000	0.033006
650.000000	0.033040
649.000000	0.033076
648.000000	0.033163
647.000000	0.033126
646.000000	0.033252
645.000000	0.033342
644.000000	0.033495
643.000000	0.033433
642.000000	0.033483
641.000000	0.033624
640.000000	0.033920
639.000000	0.033747
638.000000	0.033787
637.000000	0.033836
636.000000	0.033899
635.000000	0.033978
634.000000	0.034079
633.000000	0.034097
632.000000	0.034059
631.000000	0.034032
630.000000	0.034039
629.000000	0.033998
628.000000	0.034037
627.000000	0.033928
626.000000	0.033924
625.000000	0.033942
624.000000	0.033896
623.000000	0.033859
622.000000	0.033959
621.000000	0.033917
620.000000	0.033880
619.000000	0.033821
618.000000	0.033808
617.000000	0.033845
616.000000	0.033947
615.000000	0.033973
614.000000	0.033890
613.000000	0.033884
612.000000	0.033928
611.000000	0.033974
610.000000	0.034189
609.000000	0.034103
608.000000	0.034025
607.000000	0.034168
606.000000	0.034256
605.000000	0.034357
604.000000	0.034479
603.000000	0.034480
602.000000	0.034443
601.000000	0.034507
600.000000	0.034526
599.000000	0.034641
598.000000	0.034699
597.000000	0.034843
596.000000	0.034738
595.000000	0.034818
594.000000	0.034846
593.000000	0.034930
592.000000	0.034882
591.000000	0.035107
590.000000	0.035149
589.000000	0.035253
588.000000	0.035074
587.000000	0.035189
586.000000	0.035261
585.000000	0.035484
584.000000	0.035519
583.000000	0.035509
582.000000	0.035505
581.000000	0.035605
580.000000	0.035706
579.000000	0.035819
578.000000	0.035845
577.000000	0.035876
576.000000	0.035919
575.000000	0.036011
574.000000	0.036081
573.000000	0.036198
572.000000	0.036320
571.000000	0.036250
570.000000	0.036332
569.000000	0.036476
568.000000	0.036491
567.000000	0.036699
566.000000	0.036637
565.000000	0.036722
564.000000	0.036774
563.000000	0.036831
562.000000	0.036940
561.000000	0.036961
560.000000	0.037134
559.000000	0.037154
558.000000	0.037158
557.000000	0.037205
556.000000	0.037215
555.000000	0.037323
554.000000	0.037481
553.000000	0.037545
552.000000	0.037576
551.000000	0.037555
550.000000	0.037666
549.000000	0.037706
548.000000	0.037736
547.000000	0.037724
546.000000	0.037694
545.000000	0.037716
544.000000	0.037690
543.000000	0.037778
542.000000	0.037821
541.000000	0.037762
540.000000	0.037754
539.000000	0.037708
538.000000	0.037695
537.000000	0.037745
536.000000	0.037815
535.000000	0.037739
534.000000	0.037674
533.000000	0.037740
532.000000	0.037758
531.000000	0.037748
530.000000	0.037777
529.000000	0.037752
528.000000	0.037631
527.000000	0.037689
526.000000	0.037777
525.000000	0.037756
524.000000	0.037749
523.000000	0.037712
522.000000	0.037757
521.000000	0.037766
520.000000	0.037713
519.000000	0.037793
518.000000	0.037890
517.000000	0.037871
516.000000	0.037865
515.000000	0.037928
514.000000	0.037917
513.000000	0.037933
512.000000	0.038078
511.000000	0.038175
510.000000	0.038156
509.000000	0.038146
508.000000	0.038217
507.000000	0.038369
506.000000	0.038458
505.000000	0.038491
504.000000	0.038539
503.000000	0.038644
502.000000	0.038660
501.000000	0.038776
500.000000	0.038935
499.000000	0.038978
498.000000	0.039024
497.000000	0.039123
496.000000	0.039253
495.000000	0.039416
494.000000	0.039593
493.000000	0.039693
492.000000	0.039746
491.000000	0.039831
490.000000	0.039961
489.000000	0.040148
488.000000	0.040277
487.000000	0.040324
486.000000	0.040468
485.000000	0.040644
484.000000	0.040755
483.000000	0.040899
482.000000	0.041079
481.000000	0.041101
480.000000	0.041116
479.000000	0.041257
478.000000	0.041382
477.000000	0.041569
476.000000	0.041699
475.000000	0.041744
474.000000	0.041845
473.000000	0.042008
472.000000	0.042156
471.000000	0.042333
470.000000	0.042535
469.000000	0.042585
468.000000	0.042692
467.000000	0.042867
466.000000	0.043029
465.000000	0.043249
464.000000	0.043451
463.000000	0.043601
462.000000	0.043640
461.000000	0.043812
460.000000	0.044067
459.000000	0.044250
458.000000	0.044410
457.000000	0.044537
456.000000	0.044709
455.000000	0.044854
454.000000	0.045018
453.000000	0.045286
452.000000	0.045431
451.000000	0.045447
450.000000	0.045591
449.000000	0.045852
448.000000	0.045984
447.000000	0.046214
446.000000	0.046481
445.000000	0.046595
444.000000	0.046681
443.000000	0.046864
442.000000	0.047012
441.000000	0.047260
440.000000	0.047413
439.000000	0.047485
438.000000	0.047629
437.000000	0.047755
436.000000	0.047906
435.000000	0.048150
434.000000	0.048397
433.000000	0.048390
432.000000	0.048519
431.000000	0.048691
430.000000	0.048820
429.000000	0.049027
428.000000	0.049173
427.000000	0.049358
426.000000	0.049403
425.000000	0.049574
424.000000	0.049841
423.000000	0.050088
422.000000	0.050072
421.000000	0.050231
420.000000	0.050496
419.000000	0.050618
418.000000	0.050710
417.000000	0.051010
416.000000	0.051307
415.000000	0.051341
414.000000	0.051529
413.000000	0.051728
412.000000	0.051975
411.000000	0.052286
410.000000	0.052569
409.000000	0.052786
408.000000	0.052927
407.000000	0.053204
406.000000	0.053549
405.000000	0.053900
404.000000	0.054080
403.000000	0.054239
402.000000	0.054695
401.000000	0.055013
400.000000	0.055278
399.000000	0.055735
398.000000	0.056201
397.000000	0.056267
396.000000	0.056668
395.000000	0.057022
394.000000	0.057357
393.000000	0.057752
392.000000	0.058132
391.000000	0.058530
390.000000	0.058928
389.000000	0.059155
388.000000	0.059700
387.000000	0.060219
386.000000	0.060624
385.000000	0.060948
384.000000	0.061332
383.000000	0.061762
382.000000	0.062044
381.000000	0.062634
380.000000	0.063275
379.000000	0.063545
378.000000	0.064138
377.000000	0.064672
376.000000	0.065108
375.000000	0.065689
374.000000	0.066168
373.000000	0.066781
372.000000	0.067304
371.000000	0.067819
370.000000	0.068441
369.000000	0.068945
368.000000	0.069472
367.000000	0.070104
366.000000	0.070801
365.000000	0.071466
364.000000	0.071948
363.000000	0.072647
362.000000	0.073265
361.000000	0.073887
360.000000	0.074584
359.000000	0.075456
358.000000	0.075939
357.000000	0.076536
356.000000	0.077330
355.000000	0.078080
354.000000	0.078872
353.000000	0.079629
352.000000	0.080416
351.000000	0.081121
350.000000	0.081715
349.000000	0.082556
348.000000	0.083446
347.000000	0.084251
346.000000	0.085000
345.000000	0.085717
344.000000	0.086675
343.000000	0.087445
342.000000	0.088196
341.000000	0.089221
340.000000	0.090036
339.000000	0.090810
338.000000	0.091639
337.000000	0.092678
336.000000	0.093575
335.000000	0.094496
334.000000	0.095470
333.000000	0.096361
332.000000	0.097312
331.000000	0.098324
330.000000	0.099356
329.000000	0.100471
328.000000	0.101409
327.000000	0.102341
326.000000	0.103401
325.000000	0.104302
324.000000	0.105428
323.000000	0.106614
322.000000	0.107752
321.000000	0.108826
320.000000	0.109946
319.000000	0.111268
318.000000	0.112477
317.000000	0.113830
316.000000	0.115216
315.000000	0.116440
314.000000	0.117680
313.000000	0.119028
312.000000	0.120332
311.000000	0.121778
310.000000	0.123377
309.000000	0.124765
308.000000	0.126073
307.000000	0.127564
306.000000	0.129140
305.000000	0.130808
304.000000	0.132341
303.000000	0.133942
302.000000	0.135640
301.000000	0.137306
300.000000	0.138989
299.000000	0.140844
298.000000	0.142675
297.000000	0.144371
296.000000	0.146323
295.000000	0.148314
294.000000	0.150162
293.000000	0.152207
292.000000	0.154407
291.000000	0.156413
290.000000	0.158500
289.000000	0.160664
288.000000	0.162775
287.000000	0.165080
286.000000	0.167261
285.000000	0.169527
284.000000	0.171952
283.000000	0.174136
282.000000	0.176388
281.000000	0.178862
280.000000	0.181168
279.000000	0.183252
278.000000	0.185523
277.000000	0.187953
276.000000	0.190235
275.000000	0.192627
274.000000	0.195211
273.000000	0.197604
272.000000	0.199820
271.000000	0.202206
270.000000	0.204624
269.000000	0.206913
268.000000	0.209110
267.000000	0.211371
266.000000	0.213616
265.000000	0.215650
264.000000	0.217627
263.000000	0.219724
262.000000	0.221651
261.000000	0.223432
260.000000	0.225290
259.000000	0.227195
258.000000	0.229015
257.000000	0.230756
256.000000	0.232558
255.000000	0.234236
254.000000	0.235786
253.000000	0.237484
252.000000	0.239363
251.000000	0.241198
250.000000	0.242887
249.000000	0.244758
248.000000	0.246875
247.000000	0.248938
246.000000	0.251047
245.000000	0.253596
244.000000	0.256248
243.000000	0.258893
242.000000	0.261645
241.000000	0.264796
240.000000	0.267943
239.000000	0.271289
238.000000	0.274873
237.000000	0.278712
236.000000	0.282209
235.000000	0.286112
234.000000	0.290191
233.000000	0.294467
232.000000	0.298954
231.000000	0.303552
230.000000	0.308268
229.000000	0.312989
228.000000	0.317617
227.000000	0.322744
226.000000	0.327792
225.000000	0.332902
224.000000	0.338386
223.000000	0.344394
222.000000	0.350889
221.000000	0.357776
220.000000	0.365583
219.000000	0.374083
218.000000	0.383775
217.000000	0.394784
216.000000	0.407596
215.000000	0.422872
214.000000	0.440499
213.000000	0.461136
212.000000	0.485605
211.000000	0.514039
210.000000	0.546926
209.000000	0.585280
208.000000	0.629950
207.000000	0.681853
206.000000	0.743764
205.000000	0.817020
204.000000	0.906125
203.000000	1.016056
202.000000	1.155743
201.000000	1.335320
200.000000	1.568321
