PE UV       SUBTECH     SPECTRUM    ASCII       PEDS        4.00        
   -1
KI5-XXA_1CM.Sample.Raw.asc
11/08/25
12:30:31.00
11/08/25
12:30:31.00
Hermanni Kaartokallio

200.000000
1
Lambda 650
650N8121101
PerkinElmer UV WinLab 6.0.2.0723 / 1.61.00 Lambda 650

0
0
2
0
0
UV/VIS
1
1
1
uv/vis/nir detector
0
0
0
0
Fix
 
0
0.24
0
0
0
 
 
 
0
 
0
319.2
0
Front
100
 
 
 
0
0
0
 
0
 
 
 
0
 
 
0
0
0
0
0
 
 
 
 
0
0
#HDR
-1
-1
#GR
nm
A
1.0
0.0
800.000000
-1.000000
601
8
1.736518
0.033082
#DATA
800.000000	0.038961
799.000000	0.039146
798.000000	0.039499
797.000000	0.039400
796.000000	0.039420
795.000000	0.039628
794.000000	0.039652
793.000000	0.039692
792.000000	0.039802
791.000000	0.039943
790.000000	0.039933
789.000000	0.039866
788.000000	0.040017
787.000000	0.040132
786.000000	0.040152
785.000000	0.040335
784.000000	0.040523
783.000000	0.040542
782.000000	0.040541
781.000000	0.040722
780.000000	0.040938
779.000000	0.041112
778.000000	0.041144
777.000000	0.041353
776.000000	0.041503
775.000000	0.041638
774.000000	0.041723
773.000000	0.041955
772.000000	0.041947
771.000000	0.041991
770.000000	0.042255
769.000000	0.042262
768.000000	0.042412
767.000000	0.042421
766.000000	0.042439
765.000000	0.042482
764.000000	0.042365
763.000000	0.042454
762.000000	0.042594
761.000000	0.042456
760.000000	0.042289
759.000000	0.042336
758.000000	0.042307
757.000000	0.042274
756.000000	0.042334
755.000000	0.042401
754.000000	0.042338
753.000000	0.042212
752.000000	0.042320
751.000000	0.042312
750.000000	0.042235
749.000000	0.042303
748.000000	0.042355
747.000000	0.042360
746.000000	0.042341
745.000000	0.042293
744.000000	0.042384
743.000000	0.042378
742.000000	0.042281
741.000000	0.042275
740.000000	0.042233
739.000000	0.042113
738.000000	0.042019
737.000000	0.041920
736.000000	0.041545
735.000000	0.041185
734.000000	0.040901
733.000000	0.040683
732.000000	0.040067
731.000000	0.039494
730.000000	0.038966
729.000000	0.038523
728.000000	0.038009
727.000000	0.037691
726.000000	0.037466
725.000000	0.037095
724.000000	0.036737
723.000000	0.036498
722.000000	0.036258
721.000000	0.035983
720.000000	0.035880
719.000000	0.035691
718.000000	0.035402
717.000000	0.035194
716.000000	0.035089
715.000000	0.035013
714.000000	0.034868
713.000000	0.034712
712.000000	0.034626
711.000000	0.034508
710.000000	0.034383
709.000000	0.034346
708.000000	0.034471
707.000000	0.034421
706.000000	0.034173
705.000000	0.034095
704.000000	0.034054
703.000000	0.033920
702.000000	0.033786
701.000000	0.033683
700.000000	0.033539
699.000000	0.033407
698.000000	0.033317
697.000000	0.033302
696.000000	0.033275
695.000000	0.033149
694.000000	0.033141
693.000000	0.033152
692.000000	0.033082
691.000000	0.033147
690.000000	0.033267
689.000000	0.033247
688.000000	0.033222
687.000000	0.033316
686.000000	0.033289
685.000000	0.033211
684.000000	0.033260
683.000000	0.033411
682.000000	0.033457
681.000000	0.033507
680.000000	0.033569
679.000000	0.033597
678.000000	0.033639
677.000000	0.033732
676.000000	0.033876
675.000000	0.033893
674.000000	0.033824
673.000000	0.033949
672.000000	0.034085
671.000000	0.034034
670.000000	0.034130
669.000000	0.034302
668.000000	0.034267
667.000000	0.034161
666.000000	0.034203
665.000000	0.034243
664.000000	0.034303
663.000000	0.034354
662.000000	0.034404
661.000000	0.034435
660.000000	0.034320
659.000000	0.034278
658.000000	0.034439
657.000000	0.034494
656.000000	0.034430
655.000000	0.034447
654.000000	0.034537
653.000000	0.034483
652.000000	0.034460
651.000000	0.034637
650.000000	0.034771
649.000000	0.034775
648.000000	0.034889
647.000000	0.034956
646.000000	0.035100
645.000000	0.035140
644.000000	0.035385
643.000000	0.035436
642.000000	0.035417
641.000000	0.035543
640.000000	0.035790
639.000000	0.035916
638.000000	0.035926
637.000000	0.035994
636.000000	0.036063
635.000000	0.036154
634.000000	0.036182
633.000000	0.036369
632.000000	0.036372
631.000000	0.036278
630.000000	0.036363
629.000000	0.036418
628.000000	0.036555
627.000000	0.036461
626.000000	0.036505
625.000000	0.036573
624.000000	0.036517
623.000000	0.036481
622.000000	0.036684
621.000000	0.036744
620.000000	0.036725
619.000000	0.036648
618.000000	0.036784
617.000000	0.036805
616.000000	0.036804
615.000000	0.036996
614.000000	0.037002
613.000000	0.036861
612.000000	0.037046
611.000000	0.037206
610.000000	0.037297
609.000000	0.037317
608.000000	0.037384
607.000000	0.037586
606.000000	0.037641
605.000000	0.037738
604.000000	0.037889
603.000000	0.038016
602.000000	0.037977
601.000000	0.038078
600.000000	0.038295
599.000000	0.038448
598.000000	0.038389
597.000000	0.038640
596.000000	0.038716
595.000000	0.038711
594.000000	0.038733
593.000000	0.038937
592.000000	0.039020
591.000000	0.039058
590.000000	0.039214
589.000000	0.039345
588.000000	0.039439
587.000000	0.039414
586.000000	0.039666
585.000000	0.039942
584.000000	0.040090
583.000000	0.040024
582.000000	0.040244
581.000000	0.040406
580.000000	0.040465
579.000000	0.040548
578.000000	0.040781
577.000000	0.040891
576.000000	0.040916
575.000000	0.041144
574.000000	0.041291
573.000000	0.041365
572.000000	0.041536
571.000000	0.041678
570.000000	0.041790
569.000000	0.041877
568.000000	0.042023
567.000000	0.042245
566.000000	0.042342
565.000000	0.042432
564.000000	0.042659
563.000000	0.042852
562.000000	0.042913
561.000000	0.043023
560.000000	0.043213
559.000000	0.043265
558.000000	0.043388
557.000000	0.043583
556.000000	0.043713
555.000000	0.043785
554.000000	0.043957
553.000000	0.044243
552.000000	0.044266
551.000000	0.044295
550.000000	0.044549
549.000000	0.044640
548.000000	0.044678
547.000000	0.044815
546.000000	0.044979
545.000000	0.045014
544.000000	0.045039
543.000000	0.045228
542.000000	0.045438
541.000000	0.045417
540.000000	0.045447
539.000000	0.045567
538.000000	0.045741
537.000000	0.045733
536.000000	0.045900
535.000000	0.046127
534.000000	0.046152
533.000000	0.046203
532.000000	0.046402
531.000000	0.046495
530.000000	0.046537
529.000000	0.046655
528.000000	0.046754
527.000000	0.046907
526.000000	0.047038
525.000000	0.047258
524.000000	0.047477
523.000000	0.047559
522.000000	0.047664
521.000000	0.047835
520.000000	0.047981
519.000000	0.048087
518.000000	0.048336
517.000000	0.048530
516.000000	0.048644
515.000000	0.048788
514.000000	0.048983
513.000000	0.049234
512.000000	0.049459
511.000000	0.049668
510.000000	0.049890
509.000000	0.050085
508.000000	0.050198
507.000000	0.050472
506.000000	0.050785
505.000000	0.050956
504.000000	0.051121
503.000000	0.051437
502.000000	0.051682
501.000000	0.051881
500.000000	0.052176
499.000000	0.052478
498.000000	0.052701
497.000000	0.052965
496.000000	0.053302
495.000000	0.053621
494.000000	0.053877
493.000000	0.054149
492.000000	0.054444
491.000000	0.054677
490.000000	0.054923
489.000000	0.055301
488.000000	0.055677
487.000000	0.055933
486.000000	0.056214
485.000000	0.056608
484.000000	0.056937
483.000000	0.057206
482.000000	0.057599
481.000000	0.057951
480.000000	0.058197
479.000000	0.058472
478.000000	0.058827
477.000000	0.059273
476.000000	0.059574
475.000000	0.059841
474.000000	0.060233
473.000000	0.060673
472.000000	0.060987
471.000000	0.061334
470.000000	0.061843
469.000000	0.062204
468.000000	0.062520
467.000000	0.062921
466.000000	0.063412
465.000000	0.063847
464.000000	0.064303
463.000000	0.064802
462.000000	0.065212
461.000000	0.065608
460.000000	0.066145
459.000000	0.066669
458.000000	0.067108
457.000000	0.067499
456.000000	0.068040
455.000000	0.068617
454.000000	0.069073
453.000000	0.069572
452.000000	0.070173
451.000000	0.070584
450.000000	0.070973
449.000000	0.071633
448.000000	0.072223
447.000000	0.072737
446.000000	0.073352
445.000000	0.073983
444.000000	0.074562
443.000000	0.075033
442.000000	0.075616
441.000000	0.076348
440.000000	0.076928
439.000000	0.077533
438.000000	0.078203
437.000000	0.078859
436.000000	0.079361
435.000000	0.079991
434.000000	0.080905
433.000000	0.081558
432.000000	0.082104
431.000000	0.082794
430.000000	0.083628
429.000000	0.084349
428.000000	0.085036
427.000000	0.085827
426.000000	0.086611
425.000000	0.087359
424.000000	0.088174
423.000000	0.089035
422.000000	0.089784
421.000000	0.090464
420.000000	0.091359
419.000000	0.092293
418.000000	0.093021
417.000000	0.093878
416.000000	0.094951
415.000000	0.095814
414.000000	0.096684
413.000000	0.097632
412.000000	0.098698
411.000000	0.099742
410.000000	0.100679
409.000000	0.101758
408.000000	0.102784
407.000000	0.103797
406.000000	0.104876
405.000000	0.106099
404.000000	0.107253
403.000000	0.108342
402.000000	0.109601
401.000000	0.110884
400.000000	0.112059
399.000000	0.113357
398.000000	0.114740
397.000000	0.116022
396.000000	0.117280
395.000000	0.118628
394.000000	0.120110
393.000000	0.121541
392.000000	0.122910
391.000000	0.124323
390.000000	0.126034
389.000000	0.127517
388.000000	0.128982
387.000000	0.130672
386.000000	0.132408
385.000000	0.133792
384.000000	0.135505
383.000000	0.137249
382.000000	0.138917
381.000000	0.140666
380.000000	0.142657
379.000000	0.144373
378.000000	0.146600
377.000000	0.148384
376.000000	0.150405
375.000000	0.152288
374.000000	0.154233
373.000000	0.156319
372.000000	0.158409
371.000000	0.160384
370.000000	0.162548
369.000000	0.164777
368.000000	0.166979
367.000000	0.169008
366.000000	0.171282
365.000000	0.173734
364.000000	0.175981
363.000000	0.178253
362.000000	0.180694
361.000000	0.183198
360.000000	0.185512
359.000000	0.187931
358.000000	0.190470
357.000000	0.192931
356.000000	0.195339
355.000000	0.198020
354.000000	0.200729
353.000000	0.203298
352.000000	0.205913
351.000000	0.208612
350.000000	0.211387
349.000000	0.213892
348.000000	0.216769
347.000000	0.219694
346.000000	0.222164
345.000000	0.225089
344.000000	0.228011
343.000000	0.230813
342.000000	0.233591
341.000000	0.236641
340.000000	0.239612
339.000000	0.242461
338.000000	0.245229
337.000000	0.248425
336.000000	0.251517
335.000000	0.254442
334.000000	0.257548
333.000000	0.260662
332.000000	0.263762
331.000000	0.266830
330.000000	0.269863
329.000000	0.273232
328.000000	0.276483
327.000000	0.279554
326.000000	0.282998
325.000000	0.286444
324.000000	0.289727
323.000000	0.293122
322.000000	0.296675
321.000000	0.300183
320.000000	0.303769
319.000000	0.307530
318.000000	0.311161
317.000000	0.314800
316.000000	0.318532
315.000000	0.322274
314.000000	0.326066
313.000000	0.330078
312.000000	0.334130
311.000000	0.338191
310.000000	0.342124
309.000000	0.346073
308.000000	0.350271
307.000000	0.354299
306.000000	0.358419
305.000000	0.362582
304.000000	0.366478
303.000000	0.370732
302.000000	0.375209
301.000000	0.379664
300.000000	0.383962
299.000000	0.388412
298.000000	0.392932
297.000000	0.397496
296.000000	0.402110
295.000000	0.406811
294.000000	0.411660
293.000000	0.416555
292.000000	0.421362
291.000000	0.426350
290.000000	0.431451
289.000000	0.436449
288.000000	0.441637
287.000000	0.446984
286.000000	0.452170
285.000000	0.457388
284.000000	0.463042
283.000000	0.468445
282.000000	0.473701
281.000000	0.479168
280.000000	0.484579
279.000000	0.489943
278.000000	0.495424
277.000000	0.501056
276.000000	0.506772
275.000000	0.512497
274.000000	0.518176
273.000000	0.523997
272.000000	0.529843
271.000000	0.535483
270.000000	0.541189
269.000000	0.546904
268.000000	0.552492
267.000000	0.558072
266.000000	0.563681
265.000000	0.569118
264.000000	0.574225
263.000000	0.579350
262.000000	0.584319
261.000000	0.589305
260.000000	0.594295
259.000000	0.599096
258.000000	0.603761
257.000000	0.608327
256.000000	0.612958
255.000000	0.617588
254.000000	0.622228
253.000000	0.626835
252.000000	0.631647
251.000000	0.636455
250.000000	0.641319
249.000000	0.646350
248.000000	0.651970
247.000000	0.657804
246.000000	0.663860
245.000000	0.670241
244.000000	0.677102
243.000000	0.684341
242.000000	0.691779
241.000000	0.699640
240.000000	0.707990
239.000000	0.716461
238.000000	0.725121
237.000000	0.734422
236.000000	0.744084
235.000000	0.753976
234.000000	0.764104
233.000000	0.774507
232.000000	0.785244
231.000000	0.796255
230.000000	0.807021
229.000000	0.818279
228.000000	0.829365
227.000000	0.840750
226.000000	0.852028
225.000000	0.863470
224.000000	0.875306
223.000000	0.887542
222.000000	0.900206
221.000000	0.913160
220.000000	0.926423
219.000000	0.940716
218.000000	0.955885
217.000000	0.971595
216.000000	0.988745
215.000000	1.006961
214.000000	1.026770
213.000000	1.048330
212.000000	1.071264
211.000000	1.096504
210.000000	1.123652
209.000000	1.152537
208.000000	1.184733
207.000000	1.220745
206.000000	1.260690
205.000000	1.306040
204.000000	1.360129
203.000000	1.423745
202.000000	1.503520
201.000000	1.604283
200.000000	1.736518
