PE UV       SUBTECH     SPECTRUM    ASCII       PEDS        4.00        
   -1
KI5-01A_1CM.Sample.Raw.asc
11/08/25
12:16:28.00
11/08/25
12:16:28.00
Hermanni Kaartokallio

200.000000
1
Lambda 650
650N8121101
PerkinElmer UV WinLab 6.0.2.0723 / 1.61.00 Lambda 650

0
0
2
0
0
UV/VIS
1
1
1
uv/vis/nir detector
0
0
0
0
Fix
 
0
0.24
0
0
0
 
 
 
0
 
0
319.2
0
Front
100
 
 
 
0
0
0
 
0
 
 
 
0
 
 
0
0
0
0
0
 
 
 
 
0
0
#HDR
-1
-1
#GR
nm
A
1.0
0.0
800.000000
-1.000000
601
8
1.739550
0.033344
#DATA
800.000000	0.040246
799.000000	0.040331
798.000000	0.040646
797.000000	0.040755
796.000000	0.040704
795.000000	0.040666
794.000000	0.040866
793.000000	0.040807
792.000000	0.040769
791.000000	0.040877
790.000000	0.041004
789.000000	0.040879
788.000000	0.040989
787.000000	0.041059
786.000000	0.041195
785.000000	0.041389
784.000000	0.041510
783.000000	0.041667
782.000000	0.041753
781.000000	0.041811
780.000000	0.041957
779.000000	0.042239
778.000000	0.042237
777.000000	0.042373
776.000000	0.042526
775.000000	0.042846
774.000000	0.042993
773.000000	0.043189
772.000000	0.043346
771.000000	0.043410
770.000000	0.043544
769.000000	0.043544
768.000000	0.043674
767.000000	0.043723
766.000000	0.043551
765.000000	0.043748
764.000000	0.043728
763.000000	0.043586
762.000000	0.043683
761.000000	0.043861
760.000000	0.043675
759.000000	0.043628
758.000000	0.043588
757.000000	0.043675
756.000000	0.043697
755.000000	0.043639
754.000000	0.043579
753.000000	0.043520
752.000000	0.043574
751.000000	0.043523
750.000000	0.043480
749.000000	0.043493
748.000000	0.043379
747.000000	0.043468
746.000000	0.043500
745.000000	0.043382
744.000000	0.043349
743.000000	0.043402
742.000000	0.043312
741.000000	0.043276
740.000000	0.043184
739.000000	0.043054
738.000000	0.042954
737.000000	0.042694
736.000000	0.042263
735.000000	0.041829
734.000000	0.041345
733.000000	0.040866
732.000000	0.040376
731.000000	0.039793
730.000000	0.039214
729.000000	0.038786
728.000000	0.038356
727.000000	0.037930
726.000000	0.037706
725.000000	0.037404
724.000000	0.037049
723.000000	0.036725
722.000000	0.036527
721.000000	0.036308
720.000000	0.036146
719.000000	0.035920
718.000000	0.035689
717.000000	0.035561
716.000000	0.035407
715.000000	0.035230
714.000000	0.035121
713.000000	0.034997
712.000000	0.034854
711.000000	0.034808
710.000000	0.034730
709.000000	0.034579
708.000000	0.034636
707.000000	0.034677
706.000000	0.034504
705.000000	0.034347
704.000000	0.034266
703.000000	0.034159
702.000000	0.034016
701.000000	0.033874
700.000000	0.033729
699.000000	0.033666
698.000000	0.033580
697.000000	0.033482
696.000000	0.033478
695.000000	0.033420
694.000000	0.033358
693.000000	0.033368
692.000000	0.033350
691.000000	0.033344
690.000000	0.033416
689.000000	0.033469
688.000000	0.033435
687.000000	0.033456
686.000000	0.033553
685.000000	0.033555
684.000000	0.033514
683.000000	0.033589
682.000000	0.033675
681.000000	0.033757
680.000000	0.033788
679.000000	0.033858
678.000000	0.033928
677.000000	0.033948
676.000000	0.034011
675.000000	0.034104
674.000000	0.034106
673.000000	0.034148
672.000000	0.034257
671.000000	0.034338
670.000000	0.034370
669.000000	0.034469
668.000000	0.034502
667.000000	0.034451
666.000000	0.034457
665.000000	0.034427
664.000000	0.034477
663.000000	0.034584
662.000000	0.034555
661.000000	0.034588
660.000000	0.034646
659.000000	0.034646
658.000000	0.034643
657.000000	0.034699
656.000000	0.034629
655.000000	0.034598
654.000000	0.034734
653.000000	0.034755
652.000000	0.034802
651.000000	0.034859
650.000000	0.034934
649.000000	0.035025
648.000000	0.035132
647.000000	0.035142
646.000000	0.035268
645.000000	0.035464
644.000000	0.035580
643.000000	0.035601
642.000000	0.035718
641.000000	0.035788
640.000000	0.035998
639.000000	0.036155
638.000000	0.036206
637.000000	0.036274
636.000000	0.036327
635.000000	0.036436
634.000000	0.036471
633.000000	0.036681
632.000000	0.036676
631.000000	0.036617
630.000000	0.036701
629.000000	0.036710
628.000000	0.036754
627.000000	0.036810
626.000000	0.036804
625.000000	0.036846
624.000000	0.036822
623.000000	0.036860
622.000000	0.036916
621.000000	0.036979
620.000000	0.036995
619.000000	0.036991
618.000000	0.037042
617.000000	0.037093
616.000000	0.037173
615.000000	0.037300
614.000000	0.037286
613.000000	0.037264
612.000000	0.037378
611.000000	0.037472
610.000000	0.037591
609.000000	0.037721
608.000000	0.037685
607.000000	0.037815
606.000000	0.037959
605.000000	0.038121
604.000000	0.038100
603.000000	0.038246
602.000000	0.038341
601.000000	0.038393
600.000000	0.038523
599.000000	0.038674
598.000000	0.038707
597.000000	0.038878
596.000000	0.038832
595.000000	0.039060
594.000000	0.039094
593.000000	0.039179
592.000000	0.039238
591.000000	0.039390
590.000000	0.039515
589.000000	0.039602
588.000000	0.039703
587.000000	0.039746
586.000000	0.039916
585.000000	0.040108
584.000000	0.040319
583.000000	0.040320
582.000000	0.040463
581.000000	0.040618
580.000000	0.040747
579.000000	0.040821
578.000000	0.041023
577.000000	0.041165
576.000000	0.041231
575.000000	0.041448
574.000000	0.041533
573.000000	0.041655
572.000000	0.041883
571.000000	0.041920
570.000000	0.042051
569.000000	0.042262
568.000000	0.042387
567.000000	0.042539
566.000000	0.042712
565.000000	0.042795
564.000000	0.042980
563.000000	0.043132
562.000000	0.043311
561.000000	0.043348
560.000000	0.043542
559.000000	0.043726
558.000000	0.043903
557.000000	0.043955
556.000000	0.044130
555.000000	0.044249
554.000000	0.044425
553.000000	0.044607
552.000000	0.044662
551.000000	0.044745
550.000000	0.044925
549.000000	0.045026
548.000000	0.045094
547.000000	0.045227
546.000000	0.045292
545.000000	0.045413
544.000000	0.045518
543.000000	0.045640
542.000000	0.045824
541.000000	0.045878
540.000000	0.045877
539.000000	0.046015
538.000000	0.046128
537.000000	0.046221
536.000000	0.046392
535.000000	0.046503
534.000000	0.046553
533.000000	0.046668
532.000000	0.046809
531.000000	0.046916
530.000000	0.047044
529.000000	0.047187
528.000000	0.047179
527.000000	0.047352
526.000000	0.047591
525.000000	0.047694
524.000000	0.047821
523.000000	0.048011
522.000000	0.048163
521.000000	0.048292
520.000000	0.048443
519.000000	0.048613
518.000000	0.048832
517.000000	0.048995
516.000000	0.049126
515.000000	0.049311
514.000000	0.049485
513.000000	0.049650
512.000000	0.049931
511.000000	0.050203
510.000000	0.050304
509.000000	0.050509
508.000000	0.050735
507.000000	0.050962
506.000000	0.051181
505.000000	0.051447
504.000000	0.051682
503.000000	0.051927
502.000000	0.052107
501.000000	0.052321
500.000000	0.052634
499.000000	0.052909
498.000000	0.053127
497.000000	0.053371
496.000000	0.053665
495.000000	0.053989
494.000000	0.054357
493.000000	0.054663
492.000000	0.054912
491.000000	0.055173
490.000000	0.055473
489.000000	0.055830
488.000000	0.056156
487.000000	0.056442
486.000000	0.056798
485.000000	0.057150
484.000000	0.057451
483.000000	0.057809
482.000000	0.058217
481.000000	0.058482
480.000000	0.058696
479.000000	0.059034
478.000000	0.059439
477.000000	0.059784
476.000000	0.060084
475.000000	0.060417
474.000000	0.060740
473.000000	0.061081
472.000000	0.061482
471.000000	0.061895
470.000000	0.062338
469.000000	0.062679
468.000000	0.063060
467.000000	0.063477
466.000000	0.063946
465.000000	0.064382
464.000000	0.064857
463.000000	0.065366
462.000000	0.065763
461.000000	0.066237
460.000000	0.066730
459.000000	0.067135
458.000000	0.067661
457.000000	0.068116
456.000000	0.068637
455.000000	0.069119
454.000000	0.069595
453.000000	0.070156
452.000000	0.070695
451.000000	0.071140
450.000000	0.071634
449.000000	0.072235
448.000000	0.072765
447.000000	0.073297
446.000000	0.074005
445.000000	0.074611
444.000000	0.075165
443.000000	0.075724
442.000000	0.076358
441.000000	0.076962
440.000000	0.077663
439.000000	0.078323
438.000000	0.078915
437.000000	0.079518
436.000000	0.080144
435.000000	0.080860
434.000000	0.081635
433.000000	0.082220
432.000000	0.082902
431.000000	0.083657
430.000000	0.084428
429.000000	0.085142
428.000000	0.085954
427.000000	0.086677
426.000000	0.087422
425.000000	0.088259
424.000000	0.089056
423.000000	0.089959
422.000000	0.090676
421.000000	0.091436
420.000000	0.092279
419.000000	0.093147
418.000000	0.094043
417.000000	0.094871
416.000000	0.095882
415.000000	0.096710
414.000000	0.097704
413.000000	0.098761
412.000000	0.099701
411.000000	0.100696
410.000000	0.101844
409.000000	0.102861
408.000000	0.103880
407.000000	0.104994
406.000000	0.106131
405.000000	0.107243
404.000000	0.108491
403.000000	0.109585
402.000000	0.110875
401.000000	0.112152
400.000000	0.113314
399.000000	0.114669
398.000000	0.116120
397.000000	0.117356
396.000000	0.118719
395.000000	0.120144
394.000000	0.121559
393.000000	0.122920
392.000000	0.124497
391.000000	0.125974
390.000000	0.127590
389.000000	0.129104
388.000000	0.130669
387.000000	0.132295
386.000000	0.133964
385.000000	0.135664
384.000000	0.137406
383.000000	0.139088
382.000000	0.140746
381.000000	0.142604
380.000000	0.144690
379.000000	0.146394
378.000000	0.148498
377.000000	0.150249
376.000000	0.152204
375.000000	0.154242
374.000000	0.156252
373.000000	0.158416
372.000000	0.160565
371.000000	0.162709
370.000000	0.164937
369.000000	0.167038
368.000000	0.169294
367.000000	0.171496
366.000000	0.173857
365.000000	0.176285
364.000000	0.178560
363.000000	0.181035
362.000000	0.183402
361.000000	0.185891
360.000000	0.188365
359.000000	0.190934
358.000000	0.193353
357.000000	0.195886
356.000000	0.198492
355.000000	0.201273
354.000000	0.203901
353.000000	0.206522
352.000000	0.209372
351.000000	0.211978
350.000000	0.214675
349.000000	0.217463
348.000000	0.220368
347.000000	0.223077
346.000000	0.225920
345.000000	0.228785
344.000000	0.231718
343.000000	0.234464
342.000000	0.237360
341.000000	0.240523
340.000000	0.243479
339.000000	0.246370
338.000000	0.249252
337.000000	0.252434
336.000000	0.255467
335.000000	0.258566
334.000000	0.261690
333.000000	0.264822
332.000000	0.268036
331.000000	0.271156
330.000000	0.274302
329.000000	0.277568
328.000000	0.280839
327.000000	0.284243
326.000000	0.287582
325.000000	0.290909
324.000000	0.294402
323.000000	0.297917
322.000000	0.301510
321.000000	0.305077
320.000000	0.308658
319.000000	0.312371
318.000000	0.316013
317.000000	0.319638
316.000000	0.323367
315.000000	0.327243
314.000000	0.331112
313.000000	0.335089
312.000000	0.338981
311.000000	0.343101
310.000000	0.347283
309.000000	0.351259
308.000000	0.355307
307.000000	0.359481
306.000000	0.363514
305.000000	0.367657
304.000000	0.371943
303.000000	0.376305
302.000000	0.380805
301.000000	0.385234
300.000000	0.389640
299.000000	0.394278
298.000000	0.398899
297.000000	0.403393
296.000000	0.408159
295.000000	0.412972
294.000000	0.417678
293.000000	0.422591
292.000000	0.427672
291.000000	0.432673
290.000000	0.437661
289.000000	0.442906
288.000000	0.448151
287.000000	0.453415
286.000000	0.458761
285.000000	0.464138
284.000000	0.469635
283.000000	0.475092
282.000000	0.480568
281.000000	0.486147
280.000000	0.491684
279.000000	0.497019
278.000000	0.502491
277.000000	0.508218
276.000000	0.513960
275.000000	0.519747
274.000000	0.525668
273.000000	0.531551
272.000000	0.537277
271.000000	0.543080
270.000000	0.548904
269.000000	0.554682
268.000000	0.560362
267.000000	0.566051
266.000000	0.571619
265.000000	0.577039
264.000000	0.582266
263.000000	0.587431
262.000000	0.592583
261.000000	0.597655
260.000000	0.602556
259.000000	0.607458
258.000000	0.612259
257.000000	0.616832
256.000000	0.621586
255.000000	0.626208
254.000000	0.630677
253.000000	0.635240
252.000000	0.640052
251.000000	0.644920
250.000000	0.649841
249.000000	0.655151
248.000000	0.660787
247.000000	0.666528
246.000000	0.672523
245.000000	0.679117
244.000000	0.686014
243.000000	0.693137
242.000000	0.700692
241.000000	0.708633
240.000000	0.716890
239.000000	0.725356
238.000000	0.734187
237.000000	0.743489
236.000000	0.752878
235.000000	0.762728
234.000000	0.773067
233.000000	0.783372
232.000000	0.794001
231.000000	0.805032
230.000000	0.815916
229.000000	0.827012
228.000000	0.838116
227.000000	0.849491
226.000000	0.860802
225.000000	0.872511
224.000000	0.884420
223.000000	0.896807
222.000000	0.909475
221.000000	0.922444
220.000000	0.936459
219.000000	0.950895
218.000000	0.965815
217.000000	0.982018
216.000000	0.999286
215.000000	1.017728
214.000000	1.037409
213.000000	1.059030
212.000000	1.082186
211.000000	1.107163
210.000000	1.134074
209.000000	1.163355
208.000000	1.195341
207.000000	1.230892
206.000000	1.270244
205.000000	1.315647
204.000000	1.368170
203.000000	1.431261
202.000000	1.509600
201.000000	1.609141
200.000000	1.739550
