PE UV       SUBTECH     SPECTRUM    ASCII       PEDS        4.00        
   -1
KY5-01B_1CM.Sample.Raw.asc
11/08/25
10:44:24.00
11/08/25
10:44:24.00
Hermanni Kaartokallio

200.000000
1
Lambda 650
650N8121101
PerkinElmer UV WinLab 6.0.2.0723 / 1.61.00 Lambda 650

0
0
2
0
0
UV/VIS
1
1
1
uv/vis/nir detector
0
0
0
0
Fix
 
0
0.24
0
0
0
 
 
 
0
 
0
319.2
0
Front
100
 
 
 
0
0
0
 
0
 
 
 
0
 
 
0
0
0
0
0
 
 
 
 
0
0
#HDR
-1
-1
#GR
nm
A
1.0
0.0
800.000000
-1.000000
601
8
2.987450
0.036805
#DATA
800.000000	0.041386
799.000000	0.041623
798.000000	0.041706
797.000000	0.041633
796.000000	0.041716
795.000000	0.041859
794.000000	0.042130
793.000000	0.041941
792.000000	0.042090
791.000000	0.042250
790.000000	0.042409
789.000000	0.042264
788.000000	0.042449
787.000000	0.042561
786.000000	0.042589
785.000000	0.042556
784.000000	0.043002
783.000000	0.043095
782.000000	0.043100
781.000000	0.043156
780.000000	0.043386
779.000000	0.043531
778.000000	0.043635
777.000000	0.043879
776.000000	0.044110
775.000000	0.044216
774.000000	0.044219
773.000000	0.044385
772.000000	0.044541
771.000000	0.044681
770.000000	0.044834
769.000000	0.044967
768.000000	0.044999
767.000000	0.044953
766.000000	0.045008
765.000000	0.045136
764.000000	0.045053
763.000000	0.045061
762.000000	0.045112
761.000000	0.045086
760.000000	0.044910
759.000000	0.044917
758.000000	0.044916
757.000000	0.044923
756.000000	0.044897
755.000000	0.044970
754.000000	0.045063
753.000000	0.044954
752.000000	0.044959
751.000000	0.045057
750.000000	0.045050
749.000000	0.044894
748.000000	0.044992
747.000000	0.045078
746.000000	0.045025
745.000000	0.044926
744.000000	0.044975
743.000000	0.044997
742.000000	0.044934
741.000000	0.044928
740.000000	0.044947
739.000000	0.044819
738.000000	0.044622
737.000000	0.044463
736.000000	0.044212
735.000000	0.043763
734.000000	0.043435
733.000000	0.043167
732.000000	0.042628
731.000000	0.042046
730.000000	0.041609
729.000000	0.041224
728.000000	0.040749
727.000000	0.040371
726.000000	0.040178
725.000000	0.039906
724.000000	0.039548
723.000000	0.039291
722.000000	0.039189
721.000000	0.038954
720.000000	0.038690
719.000000	0.038541
718.000000	0.038465
717.000000	0.038313
716.000000	0.038162
715.000000	0.038114
714.000000	0.037987
713.000000	0.037820
712.000000	0.037835
711.000000	0.037848
710.000000	0.037701
709.000000	0.037571
708.000000	0.037677
707.000000	0.037738
706.000000	0.037582
705.000000	0.037543
704.000000	0.037542
703.000000	0.037387
702.000000	0.037161
701.000000	0.037102
700.000000	0.037072
699.000000	0.036975
698.000000	0.036933
697.000000	0.036918
696.000000	0.036843
695.000000	0.036821
694.000000	0.036903
693.000000	0.036903
692.000000	0.036856
691.000000	0.036805
690.000000	0.036846
689.000000	0.037010
688.000000	0.037036
687.000000	0.037106
686.000000	0.037235
685.000000	0.037222
684.000000	0.037240
683.000000	0.037393
682.000000	0.037438
681.000000	0.037451
680.000000	0.037569
679.000000	0.037693
678.000000	0.037730
677.000000	0.037787
676.000000	0.037892
675.000000	0.037896
674.000000	0.037902
673.000000	0.038059
672.000000	0.038235
671.000000	0.038261
670.000000	0.038283
669.000000	0.038361
668.000000	0.038422
667.000000	0.038423
666.000000	0.038464
665.000000	0.038520
664.000000	0.038591
663.000000	0.038533
662.000000	0.038605
661.000000	0.038726
660.000000	0.038695
659.000000	0.038706
658.000000	0.038747
657.000000	0.038817
656.000000	0.038790
655.000000	0.038828
654.000000	0.038985
653.000000	0.039115
652.000000	0.039206
651.000000	0.039335
650.000000	0.039619
649.000000	0.039703
648.000000	0.039807
647.000000	0.039961
646.000000	0.040108
645.000000	0.040177
644.000000	0.040400
643.000000	0.040543
642.000000	0.040681
641.000000	0.040878
640.000000	0.041009
639.000000	0.041240
638.000000	0.041267
637.000000	0.041391
636.000000	0.041352
635.000000	0.041453
634.000000	0.041514
633.000000	0.041874
632.000000	0.042059
631.000000	0.042072
630.000000	0.042107
629.000000	0.042172
628.000000	0.042315
627.000000	0.042356
626.000000	0.042461
625.000000	0.042619
624.000000	0.042567
623.000000	0.042684
622.000000	0.042841
621.000000	0.042933
620.000000	0.043012
619.000000	0.043033
618.000000	0.043212
617.000000	0.043332
616.000000	0.043312
615.000000	0.043360
614.000000	0.043418
613.000000	0.043396
612.000000	0.043541
611.000000	0.043839
610.000000	0.043991
609.000000	0.044048
608.000000	0.044198
607.000000	0.044501
606.000000	0.044545
605.000000	0.044653
604.000000	0.044649
603.000000	0.044796
602.000000	0.044975
601.000000	0.044979
600.000000	0.045304
599.000000	0.045511
598.000000	0.045444
597.000000	0.045595
596.000000	0.045776
595.000000	0.046006
594.000000	0.045966
593.000000	0.046255
592.000000	0.046388
591.000000	0.046505
590.000000	0.046577
589.000000	0.046884
588.000000	0.047001
587.000000	0.047107
586.000000	0.047307
585.000000	0.047604
584.000000	0.047732
583.000000	0.047846
582.000000	0.047997
581.000000	0.048366
580.000000	0.048482
579.000000	0.048572
578.000000	0.048917
577.000000	0.049143
576.000000	0.049199
575.000000	0.049522
574.000000	0.049661
573.000000	0.049779
572.000000	0.050059
571.000000	0.050304
570.000000	0.050482
569.000000	0.050676
568.000000	0.050940
567.000000	0.051129
566.000000	0.051346
565.000000	0.051482
564.000000	0.051789
563.000000	0.052081
562.000000	0.052276
561.000000	0.052394
560.000000	0.052652
559.000000	0.052818
558.000000	0.053095
557.000000	0.053317
556.000000	0.053519
555.000000	0.053682
554.000000	0.053910
553.000000	0.054267
552.000000	0.054516
551.000000	0.054616
550.000000	0.054903
549.000000	0.055100
548.000000	0.055160
547.000000	0.055433
546.000000	0.055845
545.000000	0.055956
544.000000	0.056024
543.000000	0.056263
542.000000	0.056551
541.000000	0.056700
540.000000	0.057032
539.000000	0.057264
538.000000	0.057465
537.000000	0.057544
536.000000	0.057742
535.000000	0.058106
534.000000	0.058339
533.000000	0.058562
532.000000	0.058866
531.000000	0.059122
530.000000	0.059296
529.000000	0.059534
528.000000	0.059796
527.000000	0.060037
526.000000	0.060302
525.000000	0.060565
524.000000	0.060791
523.000000	0.061005
522.000000	0.061256
521.000000	0.061558
520.000000	0.061828
519.000000	0.062008
518.000000	0.062271
517.000000	0.062640
516.000000	0.062943
515.000000	0.063178
514.000000	0.063476
513.000000	0.063858
512.000000	0.064122
511.000000	0.064443
510.000000	0.064856
509.000000	0.065203
508.000000	0.065452
507.000000	0.065792
506.000000	0.066197
505.000000	0.066586
504.000000	0.066934
503.000000	0.067363
502.000000	0.067775
501.000000	0.068083
500.000000	0.068449
499.000000	0.068945
498.000000	0.069373
497.000000	0.069715
496.000000	0.070176
495.000000	0.070686
494.000000	0.071083
493.000000	0.071545
492.000000	0.072091
491.000000	0.072551
490.000000	0.072948
489.000000	0.073411
488.000000	0.073962
487.000000	0.074483
486.000000	0.075009
485.000000	0.075582
484.000000	0.076099
483.000000	0.076500
482.000000	0.076980
481.000000	0.077609
480.000000	0.078121
479.000000	0.078593
478.000000	0.079199
477.000000	0.079805
476.000000	0.080350
475.000000	0.080912
474.000000	0.081539
473.000000	0.082172
472.000000	0.082750
471.000000	0.083309
470.000000	0.084048
469.000000	0.084720
468.000000	0.085315
467.000000	0.086009
466.000000	0.086797
465.000000	0.087434
464.000000	0.088106
463.000000	0.088944
462.000000	0.089682
461.000000	0.090441
460.000000	0.091245
459.000000	0.091990
458.000000	0.092752
457.000000	0.093594
456.000000	0.094508
455.000000	0.095381
454.000000	0.096175
453.000000	0.096958
452.000000	0.097862
451.000000	0.098745
450.000000	0.099599
449.000000	0.100563
448.000000	0.101530
447.000000	0.102388
446.000000	0.103399
445.000000	0.104515
444.000000	0.105516
443.000000	0.106421
442.000000	0.107432
441.000000	0.108523
440.000000	0.109600
439.000000	0.110637
438.000000	0.111765
437.000000	0.112941
436.000000	0.113978
435.000000	0.115120
434.000000	0.116459
433.000000	0.117650
432.000000	0.118704
431.000000	0.119932
430.000000	0.121317
429.000000	0.122441
428.000000	0.123661
427.000000	0.125116
426.000000	0.126465
425.000000	0.127768
424.000000	0.129184
423.000000	0.130640
422.000000	0.131990
421.000000	0.133390
420.000000	0.134906
419.000000	0.136447
418.000000	0.137847
417.000000	0.139290
416.000000	0.141005
415.000000	0.142674
414.000000	0.144250
413.000000	0.145936
412.000000	0.147823
411.000000	0.149561
410.000000	0.151262
409.000000	0.153157
408.000000	0.155047
407.000000	0.156945
406.000000	0.158896
405.000000	0.160880
404.000000	0.162915
403.000000	0.164933
402.000000	0.167082
401.000000	0.169359
400.000000	0.171448
399.000000	0.173566
398.000000	0.175940
397.000000	0.178333
396.000000	0.180678
395.000000	0.182935
394.000000	0.185591
393.000000	0.187983
392.000000	0.190476
391.000000	0.193129
390.000000	0.195995
389.000000	0.198527
388.000000	0.201194
387.000000	0.203948
386.000000	0.206876
385.000000	0.209768
384.000000	0.212652
383.000000	0.215818
382.000000	0.218741
381.000000	0.221690
380.000000	0.225030
379.000000	0.228261
378.000000	0.231897
377.000000	0.235048
376.000000	0.238489
375.000000	0.241990
374.000000	0.245359
373.000000	0.249026
372.000000	0.252698
371.000000	0.256179
370.000000	0.259949
369.000000	0.263893
368.000000	0.267871
367.000000	0.271575
366.000000	0.275587
365.000000	0.279683
364.000000	0.283704
363.000000	0.287892
362.000000	0.292196
361.000000	0.296556
360.000000	0.300783
359.000000	0.305184
358.000000	0.309708
357.000000	0.314228
356.000000	0.318632
355.000000	0.323388
354.000000	0.328121
353.000000	0.332791
352.000000	0.337497
351.000000	0.342610
350.000000	0.347426
349.000000	0.352197
348.000000	0.357210
347.000000	0.361975
346.000000	0.367062
345.000000	0.372119
344.000000	0.377392
343.000000	0.382636
342.000000	0.387840
341.000000	0.393268
340.000000	0.398787
339.000000	0.404149
338.000000	0.409533
337.000000	0.415160
336.000000	0.420850
335.000000	0.426333
334.000000	0.432054
333.000000	0.438035
332.000000	0.443963
331.000000	0.449699
330.000000	0.455547
329.000000	0.461592
328.000000	0.467707
327.000000	0.473655
326.000000	0.479856
325.000000	0.486105
324.000000	0.492449
323.000000	0.498741
322.000000	0.505345
321.000000	0.511865
320.000000	0.518350
319.000000	0.525129
318.000000	0.531829
317.000000	0.538403
316.000000	0.545316
315.000000	0.552283
314.000000	0.559213
313.000000	0.566345
312.000000	0.573529
311.000000	0.580823
310.000000	0.588091
309.000000	0.595423
308.000000	0.602850
307.000000	0.610327
306.000000	0.617877
305.000000	0.625523
304.000000	0.632935
303.000000	0.640747
302.000000	0.648931
301.000000	0.657029
300.000000	0.664908
299.000000	0.672972
298.000000	0.681293
297.000000	0.689673
296.000000	0.698196
295.000000	0.706836
294.000000	0.715569
293.000000	0.724333
292.000000	0.733336
291.000000	0.742522
290.000000	0.751796
289.000000	0.761254
288.000000	0.770793
287.000000	0.780540
286.000000	0.790175
285.000000	0.799871
284.000000	0.809932
283.000000	0.819918
282.000000	0.829835
281.000000	0.839663
280.000000	0.849662
279.000000	0.859766
278.000000	0.869871
277.000000	0.880186
276.000000	0.890577
275.000000	0.900969
274.000000	0.911495
273.000000	0.922130
272.000000	0.932439
271.000000	0.942590
270.000000	0.952956
269.000000	0.963299
268.000000	0.973344
267.000000	0.983458
266.000000	0.993440
265.000000	1.003201
264.000000	1.012840
263.000000	1.022180
262.000000	1.031431
261.000000	1.040592
260.000000	1.049537
259.000000	1.058263
258.000000	1.066900
257.000000	1.075383
256.000000	1.084011
255.000000	1.092598
254.000000	1.101291
253.000000	1.110148
252.000000	1.119139
251.000000	1.128411
250.000000	1.137902
249.000000	1.147611
248.000000	1.157930
247.000000	1.169130
246.000000	1.180698
245.000000	1.192961
244.000000	1.206055
243.000000	1.219891
242.000000	1.234256
241.000000	1.249214
240.000000	1.265260
239.000000	1.282072
238.000000	1.299759
237.000000	1.318480
236.000000	1.337973
235.000000	1.358728
234.000000	1.380591
233.000000	1.403584
232.000000	1.428165
231.000000	1.453818
230.000000	1.480902
229.000000	1.509912
228.000000	1.539865
227.000000	1.571372
226.000000	1.605466
225.000000	1.641789
224.000000	1.680709
223.000000	1.721817
222.000000	1.765601
221.000000	1.811170
220.000000	1.859349
219.000000	1.909348
218.000000	1.961630
217.000000	2.015014
216.000000	2.070752
215.000000	2.126818
214.000000	2.184351
213.000000	2.241025
212.000000	2.299435
211.000000	2.356643
210.000000	2.411978
209.000000	2.463861
208.000000	2.516990
207.000000	2.571018
206.000000	2.622633
205.000000	2.674548
204.000000	2.720153
203.000000	2.775623
202.000000	2.832182
201.000000	2.902349
200.000000	2.987450
