PE UV       SUBTECH     SPECTRUM    ASCII       PEDS        4.00        
   -1
KY5-000_1CM.Sample.Raw.asc
11/08/25
10:35:24.00
11/08/25
10:35:24.00
Hermanni Kaartokallio

200.000000
1
Lambda 650
650N8121101
PerkinElmer UV WinLab 6.0.2.0723 / 1.61.00 Lambda 650

0
0
2
0
0
UV/VIS
1
1
1
uv/vis/nir detector
0
0
0
0
Fix
 
0
0.24
0
0
0
 
 
 
0
 
0
319.2
0
Front
100
 
 
 
0
0
0
 
0
 
 
 
0
 
 
0
0
0
0
0
 
 
 
 
0
0
#HDR
-1
-1
#GR
nm
A
1.0
0.0
800.000000
-1.000000
601
8
3.130721
0.037931
#DATA
800.000000	0.041880
799.000000	0.041955
798.000000	0.042065
797.000000	0.042194
796.000000	0.042285
795.000000	0.042290
794.000000	0.042490
793.000000	0.042424
792.000000	0.042517
791.000000	0.042646
790.000000	0.042866
789.000000	0.042762
788.000000	0.042835
787.000000	0.042954
786.000000	0.043035
785.000000	0.043158
784.000000	0.043441
783.000000	0.043530
782.000000	0.043676
781.000000	0.043659
780.000000	0.043764
779.000000	0.044130
778.000000	0.044209
777.000000	0.044305
776.000000	0.044531
775.000000	0.044817
774.000000	0.044871
773.000000	0.045012
772.000000	0.045207
771.000000	0.045408
770.000000	0.045577
769.000000	0.045522
768.000000	0.045657
767.000000	0.045654
766.000000	0.045662
765.000000	0.045762
764.000000	0.045761
763.000000	0.045698
762.000000	0.045747
761.000000	0.045747
760.000000	0.045652
759.000000	0.045632
758.000000	0.045552
757.000000	0.045659
756.000000	0.045612
755.000000	0.045615
754.000000	0.045679
753.000000	0.045649
752.000000	0.045715
751.000000	0.045705
750.000000	0.045686
749.000000	0.045691
748.000000	0.045722
747.000000	0.045755
746.000000	0.045831
745.000000	0.045803
744.000000	0.045743
743.000000	0.045740
742.000000	0.045763
741.000000	0.045752
740.000000	0.045682
739.000000	0.045574
738.000000	0.045379
737.000000	0.045242
736.000000	0.044995
735.000000	0.044641
734.000000	0.044315
733.000000	0.043861
732.000000	0.043428
731.000000	0.042932
730.000000	0.042408
729.000000	0.041968
728.000000	0.041589
727.000000	0.041252
726.000000	0.040967
725.000000	0.040716
724.000000	0.040496
723.000000	0.040211
722.000000	0.039974
721.000000	0.039794
720.000000	0.039617
719.000000	0.039422
718.000000	0.039286
717.000000	0.039200
716.000000	0.039104
715.000000	0.039003
714.000000	0.038922
713.000000	0.038775
712.000000	0.038730
711.000000	0.038761
710.000000	0.038726
709.000000	0.038599
708.000000	0.038595
707.000000	0.038631
706.000000	0.038574
705.000000	0.038561
704.000000	0.038520
703.000000	0.038363
702.000000	0.038234
701.000000	0.038159
700.000000	0.038082
699.000000	0.038037
698.000000	0.038018
697.000000	0.037984
696.000000	0.037931
695.000000	0.037958
694.000000	0.038026
693.000000	0.038030
692.000000	0.037993
691.000000	0.037991
690.000000	0.038067
689.000000	0.038184
688.000000	0.038176
687.000000	0.038186
686.000000	0.038346
685.000000	0.038415
684.000000	0.038415
683.000000	0.038553
682.000000	0.038622
681.000000	0.038628
680.000000	0.038783
679.000000	0.038888
678.000000	0.038947
677.000000	0.039073
676.000000	0.039094
675.000000	0.039131
674.000000	0.039238
673.000000	0.039340
672.000000	0.039405
671.000000	0.039519
670.000000	0.039579
669.000000	0.039616
668.000000	0.039714
667.000000	0.039762
666.000000	0.039767
665.000000	0.039760
664.000000	0.039824
663.000000	0.039882
662.000000	0.039954
661.000000	0.040048
660.000000	0.040107
659.000000	0.040101
658.000000	0.040051
657.000000	0.040133
656.000000	0.040207
655.000000	0.040275
654.000000	0.040309
653.000000	0.040406
652.000000	0.040465
651.000000	0.040555
650.000000	0.040768
649.000000	0.040887
648.000000	0.041038
647.000000	0.041068
646.000000	0.041237
645.000000	0.041373
644.000000	0.041621
643.000000	0.041669
642.000000	0.041833
641.000000	0.042020
640.000000	0.042197
639.000000	0.042343
638.000000	0.042516
637.000000	0.042613
636.000000	0.042762
635.000000	0.042933
634.000000	0.042953
633.000000	0.043142
632.000000	0.043236
631.000000	0.043349
630.000000	0.043454
629.000000	0.043572
628.000000	0.043602
627.000000	0.043788
626.000000	0.043830
625.000000	0.043885
624.000000	0.043973
623.000000	0.044105
622.000000	0.044169
621.000000	0.044241
620.000000	0.044484
619.000000	0.044499
618.000000	0.044577
617.000000	0.044668
616.000000	0.044785
615.000000	0.044956
614.000000	0.045048
613.000000	0.045180
612.000000	0.045332
611.000000	0.045495
610.000000	0.045603
609.000000	0.045724
608.000000	0.045895
607.000000	0.046122
606.000000	0.046317
605.000000	0.046495
604.000000	0.046485
603.000000	0.046636
602.000000	0.046860
601.000000	0.047015
600.000000	0.047171
599.000000	0.047357
598.000000	0.047406
597.000000	0.047594
596.000000	0.047775
595.000000	0.048004
594.000000	0.048102
593.000000	0.048351
592.000000	0.048461
591.000000	0.048606
590.000000	0.048762
589.000000	0.049004
588.000000	0.049118
587.000000	0.049380
586.000000	0.049566
585.000000	0.049718
584.000000	0.050021
583.000000	0.050186
582.000000	0.050366
581.000000	0.050605
580.000000	0.050819
579.000000	0.050976
578.000000	0.051235
577.000000	0.051566
576.000000	0.051706
575.000000	0.051945
574.000000	0.052209
573.000000	0.052351
572.000000	0.052608
571.000000	0.052869
570.000000	0.053104
569.000000	0.053358
568.000000	0.053570
567.000000	0.053803
566.000000	0.054067
565.000000	0.054352
564.000000	0.054624
563.000000	0.054844
562.000000	0.055142
561.000000	0.055386
560.000000	0.055661
559.000000	0.055954
558.000000	0.056244
557.000000	0.056487
556.000000	0.056809
555.000000	0.056932
554.000000	0.057198
553.000000	0.057498
552.000000	0.057747
551.000000	0.057921
550.000000	0.058228
549.000000	0.058452
548.000000	0.058616
547.000000	0.058898
546.000000	0.059103
545.000000	0.059264
544.000000	0.059495
543.000000	0.059741
542.000000	0.059978
541.000000	0.060348
540.000000	0.060674
539.000000	0.060982
538.000000	0.061219
537.000000	0.061460
536.000000	0.061665
535.000000	0.061981
534.000000	0.062289
533.000000	0.062564
532.000000	0.062864
531.000000	0.063128
530.000000	0.063364
529.000000	0.063604
528.000000	0.063870
527.000000	0.064227
526.000000	0.064617
525.000000	0.064855
524.000000	0.065058
523.000000	0.065395
522.000000	0.065746
521.000000	0.066034
520.000000	0.066275
519.000000	0.066518
518.000000	0.066858
517.000000	0.067146
516.000000	0.067457
515.000000	0.067836
514.000000	0.068166
513.000000	0.068516
512.000000	0.068913
511.000000	0.069302
510.000000	0.069658
509.000000	0.070066
508.000000	0.070430
507.000000	0.070816
506.000000	0.071173
505.000000	0.071611
504.000000	0.072094
503.000000	0.072584
502.000000	0.072969
501.000000	0.073375
500.000000	0.073849
499.000000	0.074340
498.000000	0.074816
497.000000	0.075317
496.000000	0.075814
495.000000	0.076337
494.000000	0.076838
493.000000	0.077355
492.000000	0.077885
491.000000	0.078434
490.000000	0.078988
489.000000	0.079519
488.000000	0.080024
487.000000	0.080579
486.000000	0.081237
485.000000	0.081845
484.000000	0.082401
483.000000	0.082944
482.000000	0.083558
481.000000	0.084206
480.000000	0.084765
479.000000	0.085354
478.000000	0.085976
477.000000	0.086609
476.000000	0.087251
475.000000	0.087918
474.000000	0.088633
473.000000	0.089325
472.000000	0.090014
471.000000	0.090653
470.000000	0.091401
469.000000	0.092180
468.000000	0.092905
467.000000	0.093661
466.000000	0.094471
465.000000	0.095285
464.000000	0.096089
463.000000	0.096943
462.000000	0.097768
461.000000	0.098643
460.000000	0.099604
459.000000	0.100461
458.000000	0.101325
457.000000	0.102265
456.000000	0.103242
455.000000	0.104170
454.000000	0.105153
453.000000	0.106151
452.000000	0.107094
451.000000	0.108099
450.000000	0.109132
449.000000	0.110215
448.000000	0.111250
447.000000	0.112257
446.000000	0.113457
445.000000	0.114664
444.000000	0.115830
443.000000	0.116974
442.000000	0.118110
441.000000	0.119245
440.000000	0.120488
439.000000	0.121741
438.000000	0.123071
437.000000	0.124328
436.000000	0.125611
435.000000	0.126910
434.000000	0.128325
433.000000	0.129631
432.000000	0.131018
431.000000	0.132462
430.000000	0.133949
429.000000	0.135326
428.000000	0.136828
427.000000	0.138406
426.000000	0.139873
425.000000	0.141553
424.000000	0.143185
423.000000	0.144830
422.000000	0.146224
421.000000	0.147983
420.000000	0.149691
419.000000	0.151449
418.000000	0.153207
417.000000	0.154919
416.000000	0.156736
415.000000	0.158647
414.000000	0.160613
413.000000	0.162591
412.000000	0.164664
411.000000	0.166675
410.000000	0.168662
409.000000	0.170882
408.000000	0.173073
407.000000	0.175252
406.000000	0.177562
405.000000	0.179826
404.000000	0.181996
403.000000	0.184481
402.000000	0.187150
401.000000	0.189631
400.000000	0.192236
399.000000	0.194852
398.000000	0.197315
397.000000	0.200066
396.000000	0.202855
395.000000	0.205613
394.000000	0.208544
393.000000	0.211415
392.000000	0.214288
391.000000	0.217380
390.000000	0.220526
389.000000	0.223653
388.000000	0.226878
387.000000	0.229938
386.000000	0.233099
385.000000	0.236671
384.000000	0.240067
383.000000	0.243525
382.000000	0.247058
381.000000	0.250551
380.000000	0.254198
379.000000	0.258121
378.000000	0.262394
377.000000	0.266014
376.000000	0.269961
375.000000	0.274081
374.000000	0.278047
373.000000	0.282191
372.000000	0.286401
371.000000	0.290509
370.000000	0.294863
369.000000	0.299355
368.000000	0.303925
367.000000	0.308345
366.000000	0.312896
365.000000	0.317557
364.000000	0.322212
363.000000	0.327185
362.000000	0.332043
361.000000	0.336988
360.000000	0.342072
359.000000	0.347074
358.000000	0.352128
357.000000	0.357307
356.000000	0.362362
355.000000	0.367761
354.000000	0.373117
353.000000	0.378607
352.000000	0.384200
351.000000	0.389839
350.000000	0.395454
349.000000	0.401130
348.000000	0.407044
347.000000	0.412706
346.000000	0.418564
345.000000	0.424546
344.000000	0.430621
343.000000	0.436587
342.000000	0.442639
341.000000	0.448973
340.000000	0.455159
339.000000	0.461445
338.000000	0.467700
337.000000	0.474189
336.000000	0.480773
335.000000	0.487236
334.000000	0.493857
333.000000	0.500678
332.000000	0.507378
331.000000	0.514258
330.000000	0.521080
329.000000	0.527944
328.000000	0.534971
327.000000	0.541918
326.000000	0.549028
325.000000	0.556260
324.000000	0.563554
323.000000	0.570944
322.000000	0.578358
321.000000	0.585959
320.000000	0.593546
319.000000	0.601266
318.000000	0.608945
317.000000	0.616531
316.000000	0.624299
315.000000	0.632356
314.000000	0.640391
313.000000	0.648590
312.000000	0.656801
311.000000	0.665197
310.000000	0.673631
309.000000	0.681997
308.000000	0.690354
307.000000	0.698882
306.000000	0.707529
305.000000	0.716402
304.000000	0.725315
303.000000	0.734425
302.000000	0.743702
301.000000	0.752899
300.000000	0.762065
299.000000	0.771399
298.000000	0.780850
297.000000	0.790380
296.000000	0.800236
295.000000	0.810144
294.000000	0.819855
293.000000	0.829960
292.000000	0.840306
291.000000	0.850803
290.000000	0.861385
289.000000	0.872164
288.000000	0.883153
287.000000	0.894066
286.000000	0.905086
285.000000	0.916520
284.000000	0.927880
283.000000	0.939133
282.000000	0.950528
281.000000	0.962001
280.000000	0.973361
279.000000	0.984891
278.000000	0.996716
277.000000	1.008705
276.000000	1.020472
275.000000	1.032385
274.000000	1.044489
273.000000	1.056569
272.000000	1.068522
271.000000	1.080349
270.000000	1.092316
269.000000	1.103980
268.000000	1.115407
267.000000	1.127042
266.000000	1.138504
265.000000	1.149579
264.000000	1.160703
263.000000	1.171412
262.000000	1.181754
261.000000	1.192047
260.000000	1.202125
259.000000	1.212010
258.000000	1.221795
257.000000	1.231807
256.000000	1.241455
255.000000	1.250877
254.000000	1.260753
253.000000	1.270779
252.000000	1.280877
251.000000	1.291605
250.000000	1.302626
249.000000	1.314124
248.000000	1.326070
247.000000	1.338607
246.000000	1.352210
245.000000	1.366509
244.000000	1.381645
243.000000	1.397690
242.000000	1.414496
241.000000	1.432175
240.000000	1.450569
239.000000	1.470205
238.000000	1.490665
237.000000	1.512323
236.000000	1.535049
235.000000	1.559010
234.000000	1.584488
233.000000	1.610918
232.000000	1.638733
231.000000	1.668876
230.000000	1.699567
229.000000	1.732218
228.000000	1.766616
227.000000	1.803049
226.000000	1.841787
225.000000	1.881773
224.000000	1.925834
223.000000	1.972170
222.000000	2.020196
221.000000	2.071599
220.000000	2.125005
219.000000	2.180526
218.000000	2.237841
217.000000	2.296479
216.000000	2.358979
215.000000	2.415930
214.000000	2.479402
213.000000	2.543812
212.000000	2.605503
211.000000	2.661321
210.000000	2.718815
209.000000	2.774946
208.000000	2.816229
207.000000	2.866505
206.000000	2.920444
205.000000	2.967738
204.000000	3.003530
203.000000	3.039806
202.000000	3.077903
201.000000	3.107688
200.000000	3.130721
