PE UV       SUBTECH     SPECTRUM    ASCII       PEDS        4.00        
   -1
KY5-02B_1CM.Sample.Raw.asc
11/08/25
10:57:14.00
11/08/25
10:57:14.00
Hermanni Kaartokallio

200.000000
1
Lambda 650
650N8121101
PerkinElmer UV WinLab 6.0.2.0723 / 1.61.00 Lambda 650

0
0
2
0
0
UV/VIS
1
1
1
uv/vis/nir detector
0
0
0
0
Fix
 
0
0.24
0
0
0
 
 
 
0
 
0
319.2
0
Front
100
 
 
 
0
0
0
 
0
 
 
 
0
 
 
0
0
0
0
0
 
 
 
 
0
0
#HDR
-1
-1
#GR
nm
A
1.0
0.0
800.000000
-1.000000
601
8
2.012064
0.032481
#DATA
800.000000	0.039723
799.000000	0.039849
798.000000	0.040083
797.000000	0.039909
796.000000	0.040051
795.000000	0.040242
794.000000	0.040208
793.000000	0.040197
792.000000	0.040397
791.000000	0.040396
790.000000	0.040560
789.000000	0.040463
788.000000	0.040510
787.000000	0.040674
786.000000	0.040606
785.000000	0.040778
784.000000	0.041080
783.000000	0.041113
782.000000	0.041148
781.000000	0.041185
780.000000	0.041360
779.000000	0.041492
778.000000	0.041699
777.000000	0.041863
776.000000	0.042032
775.000000	0.042257
774.000000	0.042270
773.000000	0.042372
772.000000	0.042470
771.000000	0.042715
770.000000	0.042868
769.000000	0.042844
768.000000	0.042788
767.000000	0.042907
766.000000	0.042917
765.000000	0.042931
764.000000	0.042881
763.000000	0.043009
762.000000	0.042978
761.000000	0.042878
760.000000	0.042821
759.000000	0.042789
758.000000	0.042672
757.000000	0.042599
756.000000	0.042570
755.000000	0.042607
754.000000	0.042660
753.000000	0.042541
752.000000	0.042660
751.000000	0.042774
750.000000	0.042810
749.000000	0.042828
748.000000	0.042979
747.000000	0.043056
746.000000	0.042895
745.000000	0.042893
744.000000	0.042948
743.000000	0.042837
742.000000	0.042768
741.000000	0.042778
740.000000	0.042637
739.000000	0.042432
738.000000	0.042227
737.000000	0.042077
736.000000	0.041742
735.000000	0.041338
734.000000	0.040957
733.000000	0.040493
732.000000	0.039967
731.000000	0.039523
730.000000	0.038982
729.000000	0.038469
728.000000	0.038005
727.000000	0.037650
726.000000	0.037357
725.000000	0.037044
724.000000	0.036706
723.000000	0.036419
722.000000	0.036228
721.000000	0.035924
720.000000	0.035690
719.000000	0.035532
718.000000	0.035349
717.000000	0.035219
716.000000	0.035118
715.000000	0.034968
714.000000	0.034831
713.000000	0.034709
712.000000	0.034624
711.000000	0.034531
710.000000	0.034412
709.000000	0.034302
708.000000	0.034311
707.000000	0.034285
706.000000	0.034146
705.000000	0.034078
704.000000	0.034084
703.000000	0.033886
702.000000	0.033621
701.000000	0.033606
700.000000	0.033472
699.000000	0.033327
698.000000	0.033264
697.000000	0.033206
696.000000	0.033077
695.000000	0.033009
694.000000	0.033042
693.000000	0.032891
692.000000	0.032702
691.000000	0.032703
690.000000	0.032714
689.000000	0.032705
688.000000	0.032699
687.000000	0.032732
686.000000	0.032760
685.000000	0.032759
684.000000	0.032802
683.000000	0.032841
682.000000	0.032775
681.000000	0.032802
680.000000	0.032914
679.000000	0.032949
678.000000	0.032903
677.000000	0.032948
676.000000	0.032971
675.000000	0.032893
674.000000	0.032873
673.000000	0.032957
672.000000	0.033013
671.000000	0.033011
670.000000	0.033009
669.000000	0.033053
668.000000	0.033048
667.000000	0.033007
666.000000	0.033004
665.000000	0.032939
664.000000	0.032911
663.000000	0.032920
662.000000	0.032958
661.000000	0.032933
660.000000	0.032835
659.000000	0.032828
658.000000	0.032714
657.000000	0.032514
656.000000	0.032481
655.000000	0.032587
654.000000	0.032778
653.000000	0.032736
652.000000	0.032747
651.000000	0.032819
650.000000	0.032941
649.000000	0.032913
648.000000	0.032989
647.000000	0.033006
646.000000	0.033086
645.000000	0.033096
644.000000	0.033312
643.000000	0.033322
642.000000	0.033348
641.000000	0.033509
640.000000	0.033632
639.000000	0.033571
638.000000	0.033673
637.000000	0.033800
636.000000	0.033828
635.000000	0.033871
634.000000	0.033903
633.000000	0.034065
632.000000	0.034070
631.000000	0.033959
630.000000	0.033975
629.000000	0.034034
628.000000	0.033911
627.000000	0.033836
626.000000	0.033899
625.000000	0.033885
624.000000	0.033858
623.000000	0.033824
622.000000	0.033880
621.000000	0.033797
620.000000	0.033887
619.000000	0.033845
618.000000	0.033893
617.000000	0.033887
616.000000	0.033768
615.000000	0.033842
614.000000	0.033943
613.000000	0.033794
612.000000	0.033904
611.000000	0.034030
610.000000	0.033958
609.000000	0.033923
608.000000	0.033982
607.000000	0.034157
606.000000	0.034140
605.000000	0.034194
604.000000	0.034112
603.000000	0.034201
602.000000	0.034137
601.000000	0.034235
600.000000	0.034362
599.000000	0.034341
598.000000	0.034153
597.000000	0.034371
596.000000	0.034346
595.000000	0.034314
594.000000	0.034298
593.000000	0.034468
592.000000	0.034389
591.000000	0.034506
590.000000	0.034528
589.000000	0.034540
588.000000	0.034504
587.000000	0.034515
586.000000	0.034722
585.000000	0.034736
584.000000	0.034819
583.000000	0.034834
582.000000	0.034903
581.000000	0.034994
580.000000	0.035003
579.000000	0.035014
578.000000	0.035191
577.000000	0.035147
576.000000	0.035238
575.000000	0.035402
574.000000	0.035455
573.000000	0.035349
572.000000	0.035534
571.000000	0.035635
570.000000	0.035609
569.000000	0.035708
568.000000	0.035836
567.000000	0.035956
566.000000	0.035954
565.000000	0.036017
564.000000	0.036181
563.000000	0.036234
562.000000	0.036262
561.000000	0.036263
560.000000	0.036308
559.000000	0.036315
558.000000	0.036485
557.000000	0.036520
556.000000	0.036552
555.000000	0.036472
554.000000	0.036593
553.000000	0.036722
552.000000	0.036757
551.000000	0.036762
550.000000	0.036876
549.000000	0.036821
548.000000	0.036668
547.000000	0.036586
546.000000	0.036670
545.000000	0.036593
544.000000	0.036585
543.000000	0.036705
542.000000	0.036714
541.000000	0.036634
540.000000	0.036757
539.000000	0.036801
538.000000	0.036782
537.000000	0.036704
536.000000	0.036722
535.000000	0.036811
534.000000	0.036807
533.000000	0.036786
532.000000	0.036883
531.000000	0.036890
530.000000	0.036777
529.000000	0.036907
528.000000	0.036936
527.000000	0.036827
526.000000	0.036893
525.000000	0.036966
524.000000	0.036905
523.000000	0.036838
522.000000	0.036902
521.000000	0.036979
520.000000	0.036959
519.000000	0.036924
518.000000	0.037019
517.000000	0.037091
516.000000	0.037054
515.000000	0.037096
514.000000	0.037148
513.000000	0.037170
512.000000	0.037236
511.000000	0.037339
510.000000	0.037420
509.000000	0.037411
508.000000	0.037385
507.000000	0.037482
506.000000	0.037529
505.000000	0.037566
504.000000	0.037714
503.000000	0.037875
502.000000	0.037867
501.000000	0.037857
500.000000	0.037951
499.000000	0.038121
498.000000	0.038201
497.000000	0.038251
496.000000	0.038377
495.000000	0.038501
494.000000	0.038590
493.000000	0.038728
492.000000	0.038874
491.000000	0.038935
490.000000	0.039037
489.000000	0.039187
488.000000	0.039269
487.000000	0.039389
486.000000	0.039581
485.000000	0.039756
484.000000	0.039862
483.000000	0.039911
482.000000	0.040010
481.000000	0.040167
480.000000	0.040262
479.000000	0.040349
478.000000	0.040498
477.000000	0.040616
476.000000	0.040623
475.000000	0.040788
474.000000	0.040992
473.000000	0.041100
472.000000	0.041190
471.000000	0.041292
470.000000	0.041527
469.000000	0.041709
468.000000	0.041828
467.000000	0.041976
466.000000	0.042115
465.000000	0.042246
464.000000	0.042455
463.000000	0.042731
462.000000	0.042875
461.000000	0.042992
460.000000	0.043249
459.000000	0.043381
458.000000	0.043539
457.000000	0.043759
456.000000	0.044034
455.000000	0.044260
454.000000	0.044256
453.000000	0.044440
452.000000	0.044631
451.000000	0.044740
450.000000	0.044951
449.000000	0.045237
448.000000	0.045405
447.000000	0.045503
446.000000	0.045784
445.000000	0.046088
444.000000	0.046226
443.000000	0.046326
442.000000	0.046707
441.000000	0.046922
440.000000	0.046947
439.000000	0.047095
438.000000	0.047305
437.000000	0.047468
436.000000	0.047585
435.000000	0.047778
434.000000	0.048010
433.000000	0.048180
432.000000	0.048283
431.000000	0.048548
430.000000	0.048772
429.000000	0.048834
428.000000	0.048942
427.000000	0.049323
426.000000	0.049481
425.000000	0.049596
424.000000	0.049853
423.000000	0.050100
422.000000	0.050049
421.000000	0.050340
420.000000	0.050640
419.000000	0.050866
418.000000	0.050877
417.000000	0.051137
416.000000	0.051401
415.000000	0.051611
414.000000	0.051825
413.000000	0.052127
412.000000	0.052401
411.000000	0.052648
410.000000	0.052769
409.000000	0.053224
408.000000	0.053516
407.000000	0.053743
406.000000	0.054122
405.000000	0.054419
404.000000	0.054541
403.000000	0.054878
402.000000	0.055391
401.000000	0.055801
400.000000	0.056015
399.000000	0.056452
398.000000	0.056758
397.000000	0.057185
396.000000	0.057555
395.000000	0.057967
394.000000	0.058477
393.000000	0.058719
392.000000	0.059043
391.000000	0.059691
390.000000	0.060194
389.000000	0.060499
388.000000	0.061050
387.000000	0.061561
386.000000	0.061780
385.000000	0.062367
384.000000	0.062883
383.000000	0.063393
382.000000	0.063736
381.000000	0.064212
380.000000	0.064830
379.000000	0.065411
378.000000	0.065883
377.000000	0.066470
376.000000	0.067065
375.000000	0.067639
374.000000	0.068087
373.000000	0.068828
372.000000	0.069370
371.000000	0.069789
370.000000	0.070530
369.000000	0.071376
368.000000	0.071950
367.000000	0.072595
366.000000	0.073461
365.000000	0.073969
364.000000	0.074532
363.000000	0.075332
362.000000	0.076031
361.000000	0.076768
360.000000	0.077491
359.000000	0.078259
358.000000	0.078987
357.000000	0.079780
356.000000	0.080482
355.000000	0.081496
354.000000	0.082298
353.000000	0.082956
352.000000	0.083949
351.000000	0.084810
350.000000	0.085496
349.000000	0.086394
348.000000	0.087375
347.000000	0.088098
346.000000	0.089018
345.000000	0.089951
344.000000	0.090931
343.000000	0.091790
342.000000	0.092531
341.000000	0.093590
340.000000	0.094576
339.000000	0.095473
338.000000	0.096359
337.000000	0.097520
336.000000	0.098612
335.000000	0.099393
334.000000	0.100473
333.000000	0.101588
332.000000	0.102590
331.000000	0.103688
330.000000	0.104755
329.000000	0.105810
328.000000	0.106871
327.000000	0.107919
326.000000	0.109130
325.000000	0.110156
324.000000	0.111292
323.000000	0.112549
322.000000	0.113796
321.000000	0.114935
320.000000	0.116174
319.000000	0.117582
318.000000	0.118801
317.000000	0.120012
316.000000	0.121402
315.000000	0.122622
314.000000	0.123996
313.000000	0.125527
312.000000	0.126906
311.000000	0.128381
310.000000	0.129877
309.000000	0.131404
308.000000	0.132893
307.000000	0.134390
306.000000	0.136013
305.000000	0.137717
304.000000	0.139230
303.000000	0.141019
302.000000	0.142981
301.000000	0.144682
300.000000	0.146317
299.000000	0.148130
298.000000	0.149899
297.000000	0.151765
296.000000	0.153776
295.000000	0.155807
294.000000	0.157761
293.000000	0.159756
292.000000	0.161910
291.000000	0.164071
290.000000	0.166180
289.000000	0.168431
288.000000	0.170731
287.000000	0.172949
286.000000	0.175118
285.000000	0.177441
284.000000	0.179930
283.000000	0.182201
282.000000	0.184443
281.000000	0.186837
280.000000	0.189159
279.000000	0.191414
278.000000	0.193771
277.000000	0.196174
276.000000	0.198558
275.000000	0.200923
274.000000	0.203413
273.000000	0.206002
272.000000	0.208361
271.000000	0.210710
270.000000	0.213141
269.000000	0.215377
268.000000	0.217674
267.000000	0.220157
266.000000	0.222645
265.000000	0.224818
264.000000	0.226877
263.000000	0.229044
262.000000	0.231254
261.000000	0.233241
260.000000	0.235221
259.000000	0.237340
258.000000	0.239295
257.000000	0.241122
256.000000	0.243116
255.000000	0.245124
254.000000	0.246970
253.000000	0.248836
252.000000	0.250899
251.000000	0.252917
250.000000	0.254960
249.000000	0.257202
248.000000	0.259596
247.000000	0.261977
246.000000	0.264419
245.000000	0.267198
244.000000	0.270222
243.000000	0.273251
242.000000	0.276441
241.000000	0.279940
240.000000	0.283576
239.000000	0.287261
238.000000	0.291341
237.000000	0.295796
236.000000	0.300073
235.000000	0.304584
234.000000	0.309547
233.000000	0.314675
232.000000	0.319947
231.000000	0.325746
230.000000	0.331549
229.000000	0.337608
228.000000	0.343835
227.000000	0.350629
226.000000	0.357503
225.000000	0.364914
224.000000	0.372846
223.000000	0.381726
222.000000	0.391103
221.000000	0.401033
220.000000	0.412482
219.000000	0.425405
218.000000	0.439632
217.000000	0.455837
216.000000	0.474482
215.000000	0.495949
214.000000	0.520864
213.000000	0.550004
212.000000	0.583824
211.000000	0.622966
210.000000	0.667943
209.000000	0.720035
208.000000	0.780654
207.000000	0.851180
206.000000	0.934326
205.000000	1.032415
204.000000	1.150882
203.000000	1.295856
202.000000	1.477974
201.000000	1.709886
200.000000	2.012064
