PE UV       SUBTECH     SPECTRUM    ASCII       PEDS        4.00        
   -1
KY5-02A_1CM.Sample.Raw.asc
11/08/25
10:52:17.00
11/08/25
10:52:17.00
Hermanni Kaartokallio

200.000000
1
Lambda 650
650N8121101
PerkinElmer UV WinLab 6.0.2.0723 / 1.61.00 Lambda 650

0
0
2
0
0
UV/VIS
1
1
1
uv/vis/nir detector
0
0
0
0
Fix
 
0
0.24
0
0
0
 
 
 
0
 
0
319.2
0
Front
100
 
 
 
0
0
0
 
0
 
 
 
0
 
 
0
0
0
0
0
 
 
 
 
0
0
#HDR
-1
-1
#GR
nm
A
1.0
0.0
800.000000
-1.000000
601
8
2.318040
0.033515
#DATA
800.000000	0.039846
799.000000	0.040113
798.000000	0.040352
797.000000	0.040287
796.000000	0.040205
795.000000	0.040333
794.000000	0.040505
793.000000	0.040370
792.000000	0.040490
791.000000	0.040687
790.000000	0.040674
789.000000	0.040675
788.000000	0.040778
787.000000	0.040966
786.000000	0.040870
785.000000	0.040978
784.000000	0.041347
783.000000	0.041370
782.000000	0.041453
781.000000	0.041449
780.000000	0.041725
779.000000	0.041840
778.000000	0.041910
777.000000	0.042175
776.000000	0.042387
775.000000	0.042496
774.000000	0.042508
773.000000	0.042704
772.000000	0.042848
771.000000	0.042926
770.000000	0.043101
769.000000	0.043135
768.000000	0.043146
767.000000	0.043189
766.000000	0.043245
765.000000	0.043360
764.000000	0.043187
763.000000	0.043221
762.000000	0.043253
761.000000	0.043172
760.000000	0.043056
759.000000	0.043061
758.000000	0.043027
757.000000	0.042977
756.000000	0.042926
755.000000	0.043032
754.000000	0.043074
753.000000	0.042980
752.000000	0.043083
751.000000	0.043064
750.000000	0.042956
749.000000	0.042914
748.000000	0.043025
747.000000	0.043001
746.000000	0.042997
745.000000	0.042972
744.000000	0.043016
743.000000	0.042948
742.000000	0.042851
741.000000	0.042913
740.000000	0.042836
739.000000	0.042622
738.000000	0.042373
737.000000	0.042356
736.000000	0.042088
735.000000	0.041633
734.000000	0.041266
733.000000	0.040898
732.000000	0.040337
731.000000	0.039807
730.000000	0.039398
729.000000	0.038962
728.000000	0.038421
727.000000	0.038081
726.000000	0.037821
725.000000	0.037475
724.000000	0.037132
723.000000	0.036881
722.000000	0.036676
721.000000	0.036337
720.000000	0.036103
719.000000	0.036021
718.000000	0.035836
717.000000	0.035618
716.000000	0.035493
715.000000	0.035390
714.000000	0.035232
713.000000	0.035069
712.000000	0.035084
711.000000	0.035068
710.000000	0.034890
709.000000	0.034727
708.000000	0.034779
707.000000	0.034777
706.000000	0.034604
705.000000	0.034573
704.000000	0.034565
703.000000	0.034351
702.000000	0.034142
701.000000	0.034094
700.000000	0.034007
699.000000	0.033874
698.000000	0.033776
697.000000	0.033754
696.000000	0.033653
695.000000	0.033586
694.000000	0.033638
693.000000	0.033603
692.000000	0.033530
691.000000	0.033515
690.000000	0.033571
689.000000	0.033648
688.000000	0.033613
687.000000	0.033630
686.000000	0.033686
685.000000	0.033650
684.000000	0.033712
683.000000	0.033852
682.000000	0.033781
681.000000	0.033763
680.000000	0.033921
679.000000	0.034023
678.000000	0.033991
677.000000	0.034066
676.000000	0.034117
675.000000	0.034082
674.000000	0.034075
673.000000	0.034213
672.000000	0.034333
671.000000	0.034300
670.000000	0.034225
669.000000	0.034314
668.000000	0.034413
667.000000	0.034349
666.000000	0.034391
665.000000	0.034360
664.000000	0.034285
663.000000	0.034304
662.000000	0.034404
661.000000	0.034430
660.000000	0.034348
659.000000	0.034366
658.000000	0.034375
657.000000	0.034370
656.000000	0.034314
655.000000	0.034323
654.000000	0.034451
653.000000	0.034342
652.000000	0.034400
651.000000	0.034664
650.000000	0.034941
649.000000	0.035057
648.000000	0.035237
647.000000	0.035311
646.000000	0.035297
645.000000	0.035374
644.000000	0.035570
643.000000	0.035610
642.000000	0.035648
641.000000	0.035719
640.000000	0.035895
639.000000	0.035994
638.000000	0.036071
637.000000	0.036168
636.000000	0.036320
635.000000	0.036376
634.000000	0.036304
633.000000	0.036437
632.000000	0.036534
631.000000	0.036545
630.000000	0.036583
629.000000	0.036684
628.000000	0.036636
627.000000	0.036601
626.000000	0.036665
625.000000	0.036719
624.000000	0.036709
623.000000	0.036694
622.000000	0.036719
621.000000	0.036795
620.000000	0.036903
619.000000	0.036825
618.000000	0.036970
617.000000	0.036990
616.000000	0.036918
615.000000	0.037033
614.000000	0.037188
613.000000	0.037036
612.000000	0.037104
611.000000	0.037439
610.000000	0.037310
609.000000	0.037217
608.000000	0.037393
607.000000	0.037588
606.000000	0.037609
605.000000	0.037655
604.000000	0.037631
603.000000	0.037737
602.000000	0.037796
601.000000	0.037958
600.000000	0.038038
599.000000	0.038178
598.000000	0.038090
597.000000	0.038064
596.000000	0.038260
595.000000	0.038288
594.000000	0.038184
593.000000	0.038438
592.000000	0.038487
591.000000	0.038558
590.000000	0.038478
589.000000	0.038777
588.000000	0.038793
587.000000	0.038721
586.000000	0.039192
585.000000	0.039186
584.000000	0.039307
583.000000	0.039313
582.000000	0.039394
581.000000	0.039517
580.000000	0.039575
579.000000	0.039695
578.000000	0.039873
577.000000	0.040026
576.000000	0.040064
575.000000	0.040357
574.000000	0.040485
573.000000	0.040428
572.000000	0.040525
571.000000	0.040779
570.000000	0.040882
569.000000	0.040955
568.000000	0.041144
567.000000	0.041313
566.000000	0.041252
565.000000	0.041372
564.000000	0.041664
563.000000	0.041790
562.000000	0.041853
561.000000	0.041881
560.000000	0.041982
559.000000	0.042099
558.000000	0.042195
557.000000	0.042374
556.000000	0.042469
555.000000	0.042526
554.000000	0.042671
553.000000	0.042846
552.000000	0.042972
551.000000	0.043039
550.000000	0.043240
549.000000	0.043293
548.000000	0.043230
547.000000	0.043339
546.000000	0.043567
545.000000	0.043691
544.000000	0.043658
543.000000	0.043819
542.000000	0.043926
541.000000	0.043900
540.000000	0.044061
539.000000	0.044250
538.000000	0.044299
537.000000	0.044309
536.000000	0.044354
535.000000	0.044637
534.000000	0.044681
533.000000	0.044735
532.000000	0.044931
531.000000	0.045052
530.000000	0.045031
529.000000	0.045165
528.000000	0.045290
527.000000	0.045418
526.000000	0.045526
525.000000	0.045658
524.000000	0.045727
523.000000	0.045770
522.000000	0.045931
521.000000	0.046112
520.000000	0.046148
519.000000	0.046121
518.000000	0.046264
517.000000	0.046468
516.000000	0.046563
515.000000	0.046673
514.000000	0.046827
513.000000	0.046979
512.000000	0.047106
511.000000	0.047337
510.000000	0.047491
509.000000	0.047553
508.000000	0.047646
507.000000	0.047864
506.000000	0.048002
505.000000	0.048155
504.000000	0.048397
503.000000	0.048640
502.000000	0.048800
501.000000	0.048928
500.000000	0.049024
499.000000	0.049169
498.000000	0.049341
497.000000	0.049598
496.000000	0.049918
495.000000	0.050149
494.000000	0.050351
493.000000	0.050661
492.000000	0.050969
491.000000	0.051172
490.000000	0.051410
489.000000	0.051666
488.000000	0.051945
487.000000	0.052211
486.000000	0.052529
485.000000	0.052892
484.000000	0.053158
483.000000	0.053359
482.000000	0.053638
481.000000	0.053979
480.000000	0.054173
479.000000	0.054381
478.000000	0.054726
477.000000	0.055019
476.000000	0.055199
475.000000	0.055490
474.000000	0.055966
473.000000	0.056281
472.000000	0.056505
471.000000	0.056772
470.000000	0.057177
469.000000	0.057513
468.000000	0.057809
467.000000	0.058233
466.000000	0.058679
465.000000	0.058936
464.000000	0.059298
463.000000	0.059858
462.000000	0.060198
461.000000	0.060513
460.000000	0.061039
459.000000	0.061407
458.000000	0.061772
457.000000	0.062213
456.000000	0.062744
455.000000	0.063227
454.000000	0.063586
453.000000	0.064004
452.000000	0.064520
451.000000	0.064935
450.000000	0.065345
449.000000	0.065961
448.000000	0.066474
447.000000	0.066813
446.000000	0.067340
445.000000	0.067989
444.000000	0.068564
443.000000	0.069016
442.000000	0.069550
441.000000	0.070075
440.000000	0.070558
439.000000	0.071100
438.000000	0.071682
437.000000	0.072294
436.000000	0.072714
435.000000	0.073280
434.000000	0.074016
433.000000	0.074552
432.000000	0.075010
431.000000	0.075692
430.000000	0.076363
429.000000	0.076859
428.000000	0.077464
427.000000	0.078221
426.000000	0.078876
425.000000	0.079459
424.000000	0.080160
423.000000	0.080893
422.000000	0.081382
421.000000	0.082004
420.000000	0.082833
419.000000	0.083532
418.000000	0.084051
417.000000	0.084735
416.000000	0.085644
415.000000	0.086451
414.000000	0.087134
413.000000	0.087938
412.000000	0.088811
411.000000	0.089540
410.000000	0.090369
409.000000	0.091402
408.000000	0.092243
407.000000	0.093086
406.000000	0.094093
405.000000	0.094983
404.000000	0.095933
403.000000	0.096930
402.000000	0.097986
401.000000	0.099218
400.000000	0.100083
399.000000	0.101107
398.000000	0.102391
397.000000	0.103518
396.000000	0.104593
395.000000	0.105671
394.000000	0.106955
393.000000	0.108002
392.000000	0.109119
391.000000	0.110514
390.000000	0.111931
389.000000	0.113093
388.000000	0.114364
387.000000	0.115680
386.000000	0.117100
385.000000	0.118429
384.000000	0.119789
383.000000	0.121349
382.000000	0.122584
381.000000	0.123929
380.000000	0.125703
379.000000	0.127247
378.000000	0.128816
377.000000	0.130286
376.000000	0.132092
375.000000	0.133655
374.000000	0.135227
373.000000	0.137112
372.000000	0.138828
371.000000	0.140522
370.000000	0.142126
369.000000	0.144199
368.000000	0.145974
367.000000	0.147810
366.000000	0.149678
365.000000	0.151620
364.000000	0.153541
363.000000	0.155739
362.000000	0.157732
361.000000	0.159876
360.000000	0.161812
359.000000	0.164211
358.000000	0.165996
357.000000	0.168167
356.000000	0.170319
355.000000	0.172686
354.000000	0.175017
353.000000	0.177053
352.000000	0.179451
351.000000	0.181971
350.000000	0.184292
349.000000	0.186583
348.000000	0.189120
347.000000	0.191472
346.000000	0.193875
345.000000	0.196396
344.000000	0.199108
343.000000	0.201505
342.000000	0.203905
341.000000	0.206516
340.000000	0.209243
339.000000	0.211863
338.000000	0.214445
337.000000	0.217326
336.000000	0.220006
335.000000	0.222640
334.000000	0.225478
333.000000	0.228387
332.000000	0.231194
331.000000	0.234059
330.000000	0.236899
329.000000	0.239881
328.000000	0.242899
327.000000	0.245732
326.000000	0.248876
325.000000	0.251866
324.000000	0.254981
323.000000	0.258069
322.000000	0.261370
321.000000	0.264609
320.000000	0.267744
319.000000	0.271164
318.000000	0.274545
317.000000	0.277936
316.000000	0.281319
315.000000	0.284733
314.000000	0.288253
313.000000	0.291923
312.000000	0.295490
311.000000	0.299104
310.000000	0.302855
309.000000	0.306647
308.000000	0.310356
307.000000	0.313990
306.000000	0.317817
305.000000	0.321846
304.000000	0.325712
303.000000	0.329772
302.000000	0.334073
301.000000	0.338142
300.000000	0.342171
299.000000	0.346458
298.000000	0.350607
297.000000	0.354832
296.000000	0.359392
295.000000	0.363833
294.000000	0.368107
293.000000	0.372668
292.000000	0.377459
291.000000	0.382351
290.000000	0.387165
289.000000	0.392076
288.000000	0.397138
287.000000	0.402189
286.000000	0.407239
285.000000	0.412392
284.000000	0.417692
283.000000	0.422950
282.000000	0.428054
281.000000	0.433267
280.000000	0.438554
279.000000	0.443778
278.000000	0.448973
277.000000	0.454450
276.000000	0.459891
275.000000	0.465142
274.000000	0.470689
273.000000	0.476356
272.000000	0.481744
271.000000	0.487052
270.000000	0.492590
269.000000	0.498018
268.000000	0.503271
267.000000	0.508650
266.000000	0.513958
265.000000	0.519045
264.000000	0.524012
263.000000	0.528958
262.000000	0.533898
261.000000	0.538744
260.000000	0.543466
259.000000	0.548130
258.000000	0.552689
257.000000	0.557220
256.000000	0.561627
255.000000	0.566049
254.000000	0.570520
253.000000	0.575035
252.000000	0.579720
251.000000	0.584445
250.000000	0.589182
249.000000	0.594110
248.000000	0.599542
247.000000	0.605136
246.000000	0.610837
245.000000	0.617028
244.000000	0.623745
243.000000	0.630671
242.000000	0.637799
241.000000	0.645389
240.000000	0.653612
239.000000	0.661919
238.000000	0.670697
237.000000	0.680196
236.000000	0.690050
235.000000	0.700383
234.000000	0.711235
233.000000	0.722690
232.000000	0.734845
231.000000	0.747651
230.000000	0.760746
229.000000	0.774594
228.000000	0.789123
227.000000	0.804533
226.000000	0.820947
225.000000	0.838306
224.000000	0.856517
223.000000	0.876165
222.000000	0.897175
221.000000	0.918960
220.000000	0.942449
219.000000	0.967026
218.000000	0.993501
217.000000	1.021545
216.000000	1.051815
215.000000	1.083844
214.000000	1.118444
213.000000	1.155836
212.000000	1.195569
211.000000	1.238269
210.000000	1.284580
209.000000	1.334515
208.000000	1.389836
207.000000	1.449968
206.000000	1.517955
205.000000	1.594779
204.000000	1.685755
203.000000	1.793492
202.000000	1.926806
201.000000	2.095286
200.000000	2.318040
