PE UV       SUBTECH     SPECTRUM    ASCII       PEDS        4.00        
   -1
KY5-04B_1CM.Sample.Raw.asc
11/08/25
10:12:17.00
11/08/25
10:12:17.00
Hermanni Kaartokallio

200.000000
1
Lambda 650
650N8121101
PerkinElmer UV WinLab 6.0.2.0723 / 1.61.00 Lambda 650

0
0
2
0
0
UV/VIS
1
1
1
uv/vis/nir detector
0
0
0
0
Fix
 
0
0.24
0
0
0
 
 
 
0
 
0
319.2
0
Front
100
 
 
 
0
0
0
 
0
 
 
 
0
 
 
0
0
0
0
0
 
 
 
 
0
0
#HDR
-1
-1
#GR
nm
A
1.0
0.0
800.000000
-1.000000
601
8
1.904127
0.032505
#DATA
800.000000	0.040437
799.000000	0.040646
798.000000	0.040775
797.000000	0.040744
796.000000	0.040692
795.000000	0.040856
794.000000	0.041104
793.000000	0.040897
792.000000	0.040969
791.000000	0.041215
790.000000	0.041262
789.000000	0.041224
788.000000	0.041325
787.000000	0.041511
786.000000	0.041498
785.000000	0.041517
784.000000	0.041855
783.000000	0.041904
782.000000	0.041832
781.000000	0.041895
780.000000	0.042145
779.000000	0.042369
778.000000	0.042410
777.000000	0.042601
776.000000	0.042807
775.000000	0.042924
774.000000	0.042900
773.000000	0.043181
772.000000	0.043297
771.000000	0.043341
770.000000	0.043507
769.000000	0.043588
768.000000	0.043534
767.000000	0.043541
766.000000	0.043678
765.000000	0.043775
764.000000	0.043610
763.000000	0.043491
762.000000	0.043567
761.000000	0.043605
760.000000	0.043389
759.000000	0.043387
758.000000	0.043451
757.000000	0.043474
756.000000	0.043283
755.000000	0.043346
754.000000	0.043443
753.000000	0.043311
752.000000	0.043347
751.000000	0.043373
750.000000	0.043285
749.000000	0.043170
748.000000	0.043200
747.000000	0.043216
746.000000	0.043137
745.000000	0.043092
744.000000	0.043091
743.000000	0.043062
742.000000	0.042940
741.000000	0.042923
740.000000	0.042898
739.000000	0.042688
738.000000	0.042406
737.000000	0.042262
736.000000	0.041962
735.000000	0.041516
734.000000	0.041124
733.000000	0.040778
732.000000	0.040222
731.000000	0.039641
730.000000	0.039153
729.000000	0.038702
728.000000	0.038163
727.000000	0.037873
726.000000	0.037722
725.000000	0.037283
724.000000	0.036909
723.000000	0.036630
722.000000	0.036457
721.000000	0.036244
720.000000	0.035882
719.000000	0.035699
718.000000	0.035635
717.000000	0.035333
716.000000	0.035209
715.000000	0.035129
714.000000	0.034865
713.000000	0.034698
712.000000	0.034632
711.000000	0.034597
710.000000	0.034477
709.000000	0.034271
708.000000	0.034309
707.000000	0.034336
706.000000	0.034239
705.000000	0.034172
704.000000	0.034067
703.000000	0.033887
702.000000	0.033529
701.000000	0.033522
700.000000	0.033756
699.000000	0.033735
698.000000	0.033605
697.000000	0.033563
696.000000	0.033434
695.000000	0.033310
694.000000	0.033358
693.000000	0.033387
692.000000	0.033278
691.000000	0.033169
690.000000	0.033136
689.000000	0.033186
688.000000	0.033163
687.000000	0.033141
686.000000	0.033192
685.000000	0.033151
684.000000	0.033150
683.000000	0.033273
682.000000	0.033230
681.000000	0.033182
680.000000	0.033254
679.000000	0.033254
678.000000	0.033176
677.000000	0.033173
676.000000	0.033173
675.000000	0.033133
674.000000	0.033100
673.000000	0.033137
672.000000	0.033245
671.000000	0.033223
670.000000	0.033104
669.000000	0.033148
668.000000	0.033196
667.000000	0.033114
666.000000	0.033016
665.000000	0.032922
664.000000	0.032925
663.000000	0.032872
662.000000	0.032849
661.000000	0.032885
660.000000	0.032809
659.000000	0.032717
658.000000	0.032689
657.000000	0.032674
656.000000	0.032571
655.000000	0.032587
654.000000	0.032760
653.000000	0.032600
652.000000	0.032505
651.000000	0.032551
650.000000	0.032699
649.000000	0.032678
648.000000	0.032728
647.000000	0.032731
646.000000	0.032732
645.000000	0.032755
644.000000	0.032953
643.000000	0.033053
642.000000	0.033021
641.000000	0.032991
640.000000	0.033087
639.000000	0.033213
638.000000	0.033182
637.000000	0.033226
636.000000	0.033285
635.000000	0.033392
634.000000	0.033282
633.000000	0.033365
632.000000	0.033445
631.000000	0.033382
630.000000	0.033302
629.000000	0.033395
628.000000	0.033410
627.000000	0.033303
626.000000	0.033326
625.000000	0.033394
624.000000	0.033298
623.000000	0.033230
622.000000	0.033294
621.000000	0.033322
620.000000	0.033388
619.000000	0.033240
618.000000	0.033381
617.000000	0.033356
616.000000	0.033236
615.000000	0.033236
614.000000	0.033351
613.000000	0.033293
612.000000	0.033274
611.000000	0.033436
610.000000	0.033231
609.000000	0.032997
608.000000	0.033001
607.000000	0.033168
606.000000	0.033175
605.000000	0.033219
604.000000	0.033036
603.000000	0.033217
602.000000	0.033216
601.000000	0.033157
600.000000	0.033353
599.000000	0.033472
598.000000	0.033245
597.000000	0.033296
596.000000	0.033335
595.000000	0.033380
594.000000	0.033271
593.000000	0.033439
592.000000	0.033490
591.000000	0.033413
590.000000	0.033353
589.000000	0.033555
588.000000	0.033595
587.000000	0.033505
586.000000	0.033604
585.000000	0.033654
584.000000	0.033654
583.000000	0.033643
582.000000	0.033894
581.000000	0.033890
580.000000	0.033909
579.000000	0.033853
578.000000	0.033843
577.000000	0.034034
576.000000	0.033952
575.000000	0.034061
574.000000	0.034121
573.000000	0.033991
572.000000	0.034197
571.000000	0.034393
570.000000	0.034384
569.000000	0.034436
568.000000	0.034452
567.000000	0.034510
566.000000	0.034545
565.000000	0.034565
564.000000	0.034647
563.000000	0.034712
562.000000	0.034635
561.000000	0.034625
560.000000	0.034676
559.000000	0.034664
558.000000	0.034770
557.000000	0.034875
556.000000	0.034973
555.000000	0.034866
554.000000	0.034865
553.000000	0.035074
552.000000	0.035131
551.000000	0.035022
550.000000	0.035132
549.000000	0.035181
548.000000	0.034964
547.000000	0.034990
546.000000	0.035047
545.000000	0.035059
544.000000	0.035019
543.000000	0.035054
542.000000	0.035085
541.000000	0.035033
540.000000	0.035035
539.000000	0.035136
538.000000	0.035110
537.000000	0.035052
536.000000	0.034954
535.000000	0.035118
534.000000	0.035116
533.000000	0.034997
532.000000	0.035001
531.000000	0.035035
530.000000	0.034885
529.000000	0.034887
528.000000	0.034949
527.000000	0.035005
526.000000	0.034894
525.000000	0.034864
524.000000	0.034869
523.000000	0.034813
522.000000	0.034832
521.000000	0.034840
520.000000	0.034809
519.000000	0.034740
518.000000	0.034732
517.000000	0.034788
516.000000	0.034777
515.000000	0.034728
514.000000	0.034747
513.000000	0.034746
512.000000	0.034730
511.000000	0.034743
510.000000	0.034756
509.000000	0.034897
508.000000	0.034970
507.000000	0.034994
506.000000	0.035030
505.000000	0.035081
504.000000	0.035091
503.000000	0.035180
502.000000	0.035240
501.000000	0.035223
500.000000	0.035253
499.000000	0.035384
498.000000	0.035396
497.000000	0.035373
496.000000	0.035499
495.000000	0.035568
494.000000	0.035562
493.000000	0.035683
492.000000	0.035832
491.000000	0.035881
490.000000	0.035859
489.000000	0.035899
488.000000	0.035968
487.000000	0.036031
486.000000	0.036114
485.000000	0.036238
484.000000	0.036328
483.000000	0.036338
482.000000	0.036430
481.000000	0.036560
480.000000	0.036554
479.000000	0.036552
478.000000	0.036643
477.000000	0.036699
476.000000	0.036713
475.000000	0.036786
474.000000	0.036907
473.000000	0.037027
472.000000	0.037080
471.000000	0.037043
470.000000	0.037193
469.000000	0.037315
468.000000	0.037338
467.000000	0.037430
466.000000	0.037593
465.000000	0.037642
464.000000	0.037683
463.000000	0.037904
462.000000	0.037988
461.000000	0.038041
460.000000	0.038216
459.000000	0.038270
458.000000	0.038326
457.000000	0.038442
456.000000	0.038604
455.000000	0.038790
454.000000	0.038857
453.000000	0.038859
452.000000	0.038972
451.000000	0.039054
450.000000	0.039129
449.000000	0.039287
448.000000	0.039426
447.000000	0.039413
446.000000	0.039584
445.000000	0.039812
444.000000	0.039877
443.000000	0.039809
442.000000	0.039840
441.000000	0.039938
440.000000	0.040033
439.000000	0.040057
438.000000	0.040188
437.000000	0.040291
436.000000	0.040257
435.000000	0.040216
434.000000	0.040455
433.000000	0.040491
432.000000	0.040478
431.000000	0.040545
430.000000	0.040702
429.000000	0.040686
428.000000	0.040685
427.000000	0.040838
426.000000	0.040874
425.000000	0.040930
424.000000	0.040943
423.000000	0.040978
422.000000	0.040950
421.000000	0.040964
420.000000	0.041065
419.000000	0.041189
418.000000	0.041122
417.000000	0.041053
416.000000	0.041288
415.000000	0.041371
414.000000	0.041346
413.000000	0.041443
412.000000	0.041653
411.000000	0.041606
410.000000	0.041650
409.000000	0.041894
408.000000	0.042055
407.000000	0.042077
406.000000	0.042175
405.000000	0.042293
404.000000	0.042450
403.000000	0.042470
402.000000	0.042685
401.000000	0.042873
400.000000	0.042997
399.000000	0.043095
398.000000	0.043263
397.000000	0.043518
396.000000	0.043621
395.000000	0.043724
394.000000	0.043970
393.000000	0.044044
392.000000	0.044151
391.000000	0.044384
390.000000	0.044681
389.000000	0.044802
388.000000	0.044965
387.000000	0.045011
386.000000	0.045400
385.000000	0.045574
384.000000	0.045715
383.000000	0.045973
382.000000	0.046066
381.000000	0.046048
380.000000	0.046557
379.000000	0.046837
378.000000	0.047043
377.000000	0.047153
376.000000	0.047535
375.000000	0.047778
374.000000	0.047905
373.000000	0.048312
372.000000	0.048645
371.000000	0.048672
370.000000	0.049041
369.000000	0.049543
368.000000	0.049772
367.000000	0.050005
366.000000	0.050345
365.000000	0.050690
364.000000	0.050920
363.000000	0.051236
362.000000	0.051600
361.000000	0.051978
360.000000	0.052249
359.000000	0.052615
358.000000	0.052945
357.000000	0.053251
356.000000	0.053545
355.000000	0.054126
354.000000	0.054524
353.000000	0.054667
352.000000	0.055037
351.000000	0.055590
350.000000	0.056023
349.000000	0.056314
348.000000	0.056754
347.000000	0.057336
346.000000	0.057663
345.000000	0.057898
344.000000	0.058383
343.000000	0.058810
342.000000	0.059092
341.000000	0.059567
340.000000	0.060330
339.000000	0.060818
338.000000	0.060907
337.000000	0.061556
336.000000	0.062051
335.000000	0.062372
334.000000	0.062955
333.000000	0.063438
332.000000	0.063950
331.000000	0.064472
330.000000	0.065055
329.000000	0.065381
328.000000	0.066031
327.000000	0.066501
326.000000	0.067095
325.000000	0.067608
324.000000	0.068093
323.000000	0.068569
322.000000	0.069285
321.000000	0.069935
320.000000	0.070490
319.000000	0.071219
318.000000	0.071842
317.000000	0.072429
316.000000	0.073311
315.000000	0.073832
314.000000	0.074392
313.000000	0.075150
312.000000	0.075976
311.000000	0.076698
310.000000	0.077458
309.000000	0.078327
308.000000	0.079198
307.000000	0.079946
306.000000	0.080714
305.000000	0.081717
304.000000	0.082588
303.000000	0.083728
302.000000	0.084887
301.000000	0.085770
300.000000	0.086627
299.000000	0.087763
298.000000	0.088974
297.000000	0.089955
296.000000	0.091063
295.000000	0.092332
294.000000	0.093524
293.000000	0.094790
292.000000	0.096155
291.000000	0.097527
290.000000	0.098920
289.000000	0.100234
288.000000	0.101613
287.000000	0.103047
286.000000	0.104366
285.000000	0.105810
284.000000	0.107412
283.000000	0.108880
282.000000	0.110256
281.000000	0.111725
280.000000	0.113276
279.000000	0.114768
278.000000	0.116153
277.000000	0.117662
276.000000	0.119255
275.000000	0.120669
274.000000	0.122211
273.000000	0.123868
272.000000	0.125327
271.000000	0.126903
270.000000	0.128409
269.000000	0.129878
268.000000	0.131371
267.000000	0.132807
266.000000	0.134267
265.000000	0.135603
264.000000	0.136820
263.000000	0.138048
262.000000	0.139398
261.000000	0.140701
260.000000	0.141892
259.000000	0.143118
258.000000	0.144413
257.000000	0.145491
256.000000	0.146676
255.000000	0.147909
254.000000	0.149055
253.000000	0.150161
252.000000	0.151376
251.000000	0.152626
250.000000	0.153849
249.000000	0.155109
248.000000	0.156547
247.000000	0.157951
246.000000	0.159359
245.000000	0.160918
244.000000	0.162699
243.000000	0.164585
242.000000	0.166373
241.000000	0.168459
240.000000	0.170606
239.000000	0.172792
238.000000	0.175227
237.000000	0.177837
236.000000	0.180457
235.000000	0.183276
234.000000	0.186136
233.000000	0.189102
232.000000	0.192305
231.000000	0.195668
230.000000	0.199070
229.000000	0.202736
228.000000	0.206455
227.000000	0.210406
226.000000	0.214763
225.000000	0.219413
224.000000	0.224296
223.000000	0.229965
222.000000	0.236398
221.000000	0.243346
220.000000	0.251368
219.000000	0.260660
218.000000	0.271648
217.000000	0.284584
216.000000	0.300065
215.000000	0.318766
214.000000	0.340891
213.000000	0.367745
212.000000	0.399714
211.000000	0.437687
210.000000	0.483063
209.000000	0.536104
208.000000	0.598670
207.000000	0.672652
206.000000	0.760092
205.000000	0.864089
204.000000	0.990259
203.000000	1.144682
202.000000	1.337785
201.000000	1.584896
200.000000	1.904127
