PE UV       SUBTECH     SPECTRUM    ASCII       PEDS        4.00        
   -1
MQ12508_1CM.Sample.Raw.asc
11/08/25
09:56:33.00
11/08/25
09:56:33.00
Hermanni Kaartokallio

200.000000
1
Lambda 650
650N8121101
PerkinElmer UV WinLab 6.0.2.0723 / 1.61.00 Lambda 650

0
0
2
0
0
UV/VIS
1
1
1
uv/vis/nir detector
0
0
0
0
Fix
 
0
0.24
0
0
0
 
 
 
0
 
0
319.2
0
Front
100
 
 
 
0
0
0
 
0
 
 
 
0
 
 
0
0
0
0
0
 
 
 
 
0
0
#HDR
-1
-1
#GR
nm
A
1.0
0.0
800.000000
-1.000000
601
8
0.117109
0.034075
#DATA
800.000000	0.042769
799.000000	0.042862
798.000000	0.043143
797.000000	0.042948
796.000000	0.043061
795.000000	0.043114
794.000000	0.043308
793.000000	0.043161
792.000000	0.043204
791.000000	0.043429
790.000000	0.043497
789.000000	0.043424
788.000000	0.043560
787.000000	0.043710
786.000000	0.043657
785.000000	0.043761
784.000000	0.044056
783.000000	0.044123
782.000000	0.044119
781.000000	0.044143
780.000000	0.044359
779.000000	0.044519
778.000000	0.044589
777.000000	0.044842
776.000000	0.044983
775.000000	0.045059
774.000000	0.045152
773.000000	0.045375
772.000000	0.045599
771.000000	0.045701
770.000000	0.045812
769.000000	0.045868
768.000000	0.045999
767.000000	0.045931
766.000000	0.045963
765.000000	0.046036
764.000000	0.045959
763.000000	0.045918
762.000000	0.045996
761.000000	0.046006
760.000000	0.045835
759.000000	0.045851
758.000000	0.045820
757.000000	0.045899
756.000000	0.045746
755.000000	0.045834
754.000000	0.045868
753.000000	0.045698
752.000000	0.045754
751.000000	0.045807
750.000000	0.045734
749.000000	0.045652
748.000000	0.045713
747.000000	0.045738
746.000000	0.045682
745.000000	0.045615
744.000000	0.045659
743.000000	0.045618
742.000000	0.045507
741.000000	0.045464
740.000000	0.045359
739.000000	0.045170
738.000000	0.044903
737.000000	0.044763
736.000000	0.044465
735.000000	0.043975
734.000000	0.043583
733.000000	0.043170
732.000000	0.042603
731.000000	0.042019
730.000000	0.041484
729.000000	0.041032
728.000000	0.040565
727.000000	0.040095
726.000000	0.039835
725.000000	0.039547
724.000000	0.039168
723.000000	0.038845
722.000000	0.038652
721.000000	0.038312
720.000000	0.038035
719.000000	0.037885
718.000000	0.037678
717.000000	0.037496
716.000000	0.037323
715.000000	0.037146
714.000000	0.037001
713.000000	0.036828
712.000000	0.036722
711.000000	0.036692
710.000000	0.036590
709.000000	0.036431
708.000000	0.036438
707.000000	0.036427
706.000000	0.036269
705.000000	0.036205
704.000000	0.036139
703.000000	0.035987
702.000000	0.035805
701.000000	0.035719
700.000000	0.035668
699.000000	0.035578
698.000000	0.035501
697.000000	0.035455
696.000000	0.035343
695.000000	0.035262
694.000000	0.035314
693.000000	0.035315
692.000000	0.035181
691.000000	0.035080
690.000000	0.035100
689.000000	0.035139
688.000000	0.035039
687.000000	0.035014
686.000000	0.035090
685.000000	0.035044
684.000000	0.034990
683.000000	0.035054
682.000000	0.035006
681.000000	0.034941
680.000000	0.035021
679.000000	0.035028
678.000000	0.034989
677.000000	0.034996
676.000000	0.035013
675.000000	0.034957
674.000000	0.034869
673.000000	0.034888
672.000000	0.035017
671.000000	0.034971
670.000000	0.034846
669.000000	0.034862
668.000000	0.034904
667.000000	0.034797
666.000000	0.034743
665.000000	0.034715
664.000000	0.034661
663.000000	0.034621
662.000000	0.034601
661.000000	0.034631
660.000000	0.034523
659.000000	0.034419
658.000000	0.034366
657.000000	0.034342
656.000000	0.034264
655.000000	0.034248
654.000000	0.034317
653.000000	0.034230
652.000000	0.034075
651.000000	0.034130
650.000000	0.034222
649.000000	0.034208
648.000000	0.034246
647.000000	0.034267
646.000000	0.034261
645.000000	0.034269
644.000000	0.034426
643.000000	0.034411
642.000000	0.034437
641.000000	0.034452
640.000000	0.034580
639.000000	0.034641
638.000000	0.034627
637.000000	0.034622
636.000000	0.034718
635.000000	0.034782
634.000000	0.034693
633.000000	0.034803
632.000000	0.034862
631.000000	0.034809
630.000000	0.034774
629.000000	0.034812
628.000000	0.034825
627.000000	0.034729
626.000000	0.034781
625.000000	0.034846
624.000000	0.034779
623.000000	0.034769
622.000000	0.034780
621.000000	0.034869
620.000000	0.034825
619.000000	0.034746
618.000000	0.034858
617.000000	0.034853
616.000000	0.034762
615.000000	0.034829
614.000000	0.034889
613.000000	0.034778
612.000000	0.034762
611.000000	0.034885
610.000000	0.034849
609.000000	0.034817
608.000000	0.034835
607.000000	0.035004
606.000000	0.034980
605.000000	0.034982
604.000000	0.034864
603.000000	0.034909
602.000000	0.034874
601.000000	0.034880
600.000000	0.034978
599.000000	0.035037
598.000000	0.034791
597.000000	0.034906
596.000000	0.034998
595.000000	0.034951
594.000000	0.034851
593.000000	0.034967
592.000000	0.034999
591.000000	0.034916
590.000000	0.034918
589.000000	0.035116
588.000000	0.035009
587.000000	0.035003
586.000000	0.035007
585.000000	0.035072
584.000000	0.035125
583.000000	0.035095
582.000000	0.035174
581.000000	0.035351
580.000000	0.035246
579.000000	0.035148
578.000000	0.035332
577.000000	0.035411
576.000000	0.035291
575.000000	0.035456
574.000000	0.035527
573.000000	0.035418
572.000000	0.035536
571.000000	0.035625
570.000000	0.035661
569.000000	0.035675
568.000000	0.035687
567.000000	0.035787
566.000000	0.035772
565.000000	0.035793
564.000000	0.035875
563.000000	0.035951
562.000000	0.035960
561.000000	0.035920
560.000000	0.035981
559.000000	0.035976
558.000000	0.036023
557.000000	0.036046
556.000000	0.036088
555.000000	0.036043
554.000000	0.036069
553.000000	0.036169
552.000000	0.036243
551.000000	0.036209
550.000000	0.036233
549.000000	0.036223
548.000000	0.036094
547.000000	0.036117
546.000000	0.036295
545.000000	0.036263
544.000000	0.036103
543.000000	0.036184
542.000000	0.036255
541.000000	0.036170
540.000000	0.036218
539.000000	0.036263
538.000000	0.036217
537.000000	0.036123
536.000000	0.036122
535.000000	0.036224
534.000000	0.036165
533.000000	0.036070
532.000000	0.036117
531.000000	0.036112
530.000000	0.035960
529.000000	0.036041
528.000000	0.035985
527.000000	0.035929
526.000000	0.035903
525.000000	0.035903
524.000000	0.035824
523.000000	0.035775
522.000000	0.035802
521.000000	0.035838
520.000000	0.035737
519.000000	0.035647
518.000000	0.035681
517.000000	0.035725
516.000000	0.035654
515.000000	0.035573
514.000000	0.035591
513.000000	0.035600
512.000000	0.035551
511.000000	0.035590
510.000000	0.035641
509.000000	0.035662
508.000000	0.035554
507.000000	0.035579
506.000000	0.035651
505.000000	0.035637
504.000000	0.035589
503.000000	0.035667
502.000000	0.035716
501.000000	0.035664
500.000000	0.035674
499.000000	0.035830
498.000000	0.035862
497.000000	0.035811
496.000000	0.035857
495.000000	0.035916
494.000000	0.035899
493.000000	0.035959
492.000000	0.036057
491.000000	0.036048
490.000000	0.036014
489.000000	0.036056
488.000000	0.036135
487.000000	0.036202
486.000000	0.036309
485.000000	0.036415
484.000000	0.036428
483.000000	0.036371
482.000000	0.036410
481.000000	0.036545
480.000000	0.036548
479.000000	0.036510
478.000000	0.036588
477.000000	0.036649
476.000000	0.036617
475.000000	0.036627
474.000000	0.036754
473.000000	0.036862
472.000000	0.036880
471.000000	0.036901
470.000000	0.037061
469.000000	0.037119
468.000000	0.037104
467.000000	0.037133
466.000000	0.037222
465.000000	0.037262
464.000000	0.037363
463.000000	0.037560
462.000000	0.037600
461.000000	0.037627
460.000000	0.037764
459.000000	0.037841
458.000000	0.037851
457.000000	0.037923
456.000000	0.038105
455.000000	0.038201
454.000000	0.038186
453.000000	0.038210
452.000000	0.038330
451.000000	0.038355
450.000000	0.038329
449.000000	0.038478
448.000000	0.038564
447.000000	0.038523
446.000000	0.038650
445.000000	0.038815
444.000000	0.038835
443.000000	0.038824
442.000000	0.038877
441.000000	0.038943
440.000000	0.038942
439.000000	0.038933
438.000000	0.039020
437.000000	0.039097
436.000000	0.038984
435.000000	0.038961
434.000000	0.039148
433.000000	0.039052
432.000000	0.039003
431.000000	0.039016
430.000000	0.039061
429.000000	0.038937
428.000000	0.038937
427.000000	0.039018
426.000000	0.038990
425.000000	0.038952
424.000000	0.038883
423.000000	0.038895
422.000000	0.038825
421.000000	0.038723
420.000000	0.038745
419.000000	0.038796
418.000000	0.038664
417.000000	0.038585
416.000000	0.038669
415.000000	0.038659
414.000000	0.038524
413.000000	0.038582
412.000000	0.038703
411.000000	0.038582
410.000000	0.038573
409.000000	0.038664
408.000000	0.038681
407.000000	0.038686
406.000000	0.038649
405.000000	0.038679
404.000000	0.038776
403.000000	0.038609
402.000000	0.038718
401.000000	0.038859
400.000000	0.038839
399.000000	0.038824
398.000000	0.038947
397.000000	0.038975
396.000000	0.038896
395.000000	0.038923
394.000000	0.039136
393.000000	0.039011
392.000000	0.038959
391.000000	0.039182
390.000000	0.039414
389.000000	0.039250
388.000000	0.039300
387.000000	0.039339
386.000000	0.039484
385.000000	0.039477
384.000000	0.039479
383.000000	0.039677
382.000000	0.039539
381.000000	0.039453
380.000000	0.039756
379.000000	0.039805
378.000000	0.039714
377.000000	0.039700
376.000000	0.039942
375.000000	0.039959
374.000000	0.039929
373.000000	0.040220
372.000000	0.040279
371.000000	0.040117
370.000000	0.040175
369.000000	0.040512
368.000000	0.040633
367.000000	0.040641
366.000000	0.040669
365.000000	0.040843
364.000000	0.040754
363.000000	0.040961
362.000000	0.041063
361.000000	0.041218
360.000000	0.041146
359.000000	0.041296
358.000000	0.041363
357.000000	0.041458
356.000000	0.041521
355.000000	0.041730
354.000000	0.041766
353.000000	0.041817
352.000000	0.041943
351.000000	0.042272
350.000000	0.042322
349.000000	0.042332
348.000000	0.042521
347.000000	0.042480
346.000000	0.042656
345.000000	0.042746
344.000000	0.042959
343.000000	0.042994
342.000000	0.042948
341.000000	0.043084
340.000000	0.043253
339.000000	0.043296
338.000000	0.043276
337.000000	0.043532
336.000000	0.043703
335.000000	0.043672
334.000000	0.043765
333.000000	0.044007
332.000000	0.044104
331.000000	0.044170
330.000000	0.044202
329.000000	0.044287
328.000000	0.044421
327.000000	0.044396
326.000000	0.044508
325.000000	0.044618
324.000000	0.044611
323.000000	0.044623
322.000000	0.044887
321.000000	0.045018
320.000000	0.045049
319.000000	0.045177
318.000000	0.045152
317.000000	0.045007
316.000000	0.045162
315.000000	0.045272
314.000000	0.045243
313.000000	0.045458
312.000000	0.045583
311.000000	0.045646
310.000000	0.045741
309.000000	0.045892
308.000000	0.045986
307.000000	0.046050
306.000000	0.046191
305.000000	0.046389
304.000000	0.046393
303.000000	0.046536
302.000000	0.046813
301.000000	0.046949
300.000000	0.046895
299.000000	0.046997
298.000000	0.047168
297.000000	0.047189
296.000000	0.047371
295.000000	0.047622
294.000000	0.047727
293.000000	0.047816
292.000000	0.047985
291.000000	0.048220
290.000000	0.048390
289.000000	0.048441
288.000000	0.048598
287.000000	0.048822
286.000000	0.048956
285.000000	0.049083
284.000000	0.049355
283.000000	0.049493
282.000000	0.049514
281.000000	0.049685
280.000000	0.049912
279.000000	0.049979
278.000000	0.049985
277.000000	0.050194
276.000000	0.050401
275.000000	0.050466
274.000000	0.050658
273.000000	0.050869
272.000000	0.050904
271.000000	0.050949
270.000000	0.051115
269.000000	0.051221
268.000000	0.051304
267.000000	0.051518
266.000000	0.051733
265.000000	0.051872
264.000000	0.051951
263.000000	0.052052
262.000000	0.052316
261.000000	0.052498
260.000000	0.052578
259.000000	0.052824
258.000000	0.053156
257.000000	0.053346
256.000000	0.053574
255.000000	0.053783
254.000000	0.053977
253.000000	0.054207
252.000000	0.054548
251.000000	0.054853
250.000000	0.055144
249.000000	0.055464
248.000000	0.055875
247.000000	0.056268
246.000000	0.056472
245.000000	0.056785
244.000000	0.057333
243.000000	0.057845
242.000000	0.058170
241.000000	0.058597
240.000000	0.059045
239.000000	0.059511
238.000000	0.060038
237.000000	0.060758
236.000000	0.061233
235.000000	0.061736
234.000000	0.062235
233.000000	0.062732
232.000000	0.063300
231.000000	0.063955
230.000000	0.064542
229.000000	0.065254
228.000000	0.065737
227.000000	0.066183
226.000000	0.066845
225.000000	0.067465
224.000000	0.068097
223.000000	0.068928
222.000000	0.069661
221.000000	0.070227
220.000000	0.071119
219.000000	0.072012
218.000000	0.073094
217.000000	0.074156
216.000000	0.075209
215.000000	0.076355
214.000000	0.077786
213.000000	0.079239
212.000000	0.080863
211.000000	0.082780
210.000000	0.084533
209.000000	0.086487
208.000000	0.088858
207.000000	0.091458
206.000000	0.094255
205.000000	0.097239
204.000000	0.100646
203.000000	0.104170
202.000000	0.108040
201.000000	0.112440
200.000000	0.117109
