PE UV       SUBTECH     SPECTRUM    ASCII       PEDS        4.00        
   -1
MQ22508_1CM.Sample.Raw.asc
11/08/25
10:01:05.00
11/08/25
10:01:05.00
Hermanni Kaartokallio

200.000000
1
Lambda 650
650N8121101
PerkinElmer UV WinLab 6.0.2.0723 / 1.61.00 Lambda 650

0
0
2
0
0
UV/VIS
1
1
1
uv/vis/nir detector
0
0
0
0
Fix
 
0
0.24
0
0
0
 
 
 
0
 
0
319.2
0
Front
100
 
 
 
0
0
0
 
0
 
 
 
0
 
 
0
0
0
0
0
 
 
 
 
0
0
#HDR
-1
-1
#GR
nm
A
1.0
0.0
800.000000
-1.000000
601
8
0.112243
0.031730
#DATA
800.000000	0.040559
799.000000	0.040758
798.000000	0.040857
797.000000	0.040786
796.000000	0.040959
795.000000	0.041051
794.000000	0.041137
793.000000	0.040902
792.000000	0.041062
791.000000	0.041214
790.000000	0.041273
789.000000	0.041132
788.000000	0.041364
787.000000	0.041577
786.000000	0.041477
785.000000	0.041484
784.000000	0.041867
783.000000	0.041899
782.000000	0.041873
781.000000	0.041861
780.000000	0.042242
779.000000	0.042319
778.000000	0.042396
777.000000	0.042512
776.000000	0.042732
775.000000	0.042948
774.000000	0.042849
773.000000	0.043144
772.000000	0.043273
771.000000	0.043305
770.000000	0.043495
769.000000	0.043602
768.000000	0.043605
767.000000	0.043630
766.000000	0.043658
765.000000	0.043769
764.000000	0.043590
763.000000	0.043597
762.000000	0.043668
761.000000	0.043638
760.000000	0.043462
759.000000	0.043453
758.000000	0.043546
757.000000	0.043513
756.000000	0.043421
755.000000	0.043481
754.000000	0.043542
753.000000	0.043380
752.000000	0.043419
751.000000	0.043459
750.000000	0.043406
749.000000	0.043311
748.000000	0.043344
747.000000	0.043386
746.000000	0.043348
745.000000	0.043320
744.000000	0.043331
743.000000	0.043289
742.000000	0.043136
741.000000	0.043089
740.000000	0.043075
739.000000	0.042894
738.000000	0.042575
737.000000	0.042444
736.000000	0.042144
735.000000	0.041675
734.000000	0.041257
733.000000	0.040894
732.000000	0.040352
731.000000	0.039685
730.000000	0.039134
729.000000	0.038714
728.000000	0.038231
727.000000	0.037772
726.000000	0.037427
725.000000	0.037139
724.000000	0.036784
723.000000	0.036463
722.000000	0.036258
721.000000	0.035890
720.000000	0.035612
719.000000	0.035498
718.000000	0.035350
717.000000	0.035145
716.000000	0.034994
715.000000	0.034880
714.000000	0.034699
713.000000	0.034468
712.000000	0.034465
711.000000	0.034486
710.000000	0.034225
709.000000	0.034051
708.000000	0.034091
707.000000	0.034092
706.000000	0.033915
705.000000	0.033830
704.000000	0.033769
703.000000	0.033602
702.000000	0.033426
701.000000	0.033330
700.000000	0.033219
699.000000	0.033118
698.000000	0.033008
697.000000	0.032934
696.000000	0.032827
695.000000	0.032762
694.000000	0.032834
693.000000	0.032813
692.000000	0.032668
691.000000	0.032562
690.000000	0.032568
689.000000	0.032629
688.000000	0.032564
687.000000	0.032550
686.000000	0.032636
685.000000	0.032615
684.000000	0.032575
683.000000	0.032613
682.000000	0.032547
681.000000	0.032487
680.000000	0.032585
679.000000	0.032621
678.000000	0.032585
677.000000	0.032552
676.000000	0.032542
675.000000	0.032522
674.000000	0.032470
673.000000	0.032502
672.000000	0.032610
671.000000	0.032581
670.000000	0.032443
669.000000	0.032522
668.000000	0.032591
667.000000	0.032463
666.000000	0.032386
665.000000	0.032315
664.000000	0.032231
663.000000	0.032169
662.000000	0.032198
661.000000	0.032219
660.000000	0.032135
659.000000	0.032028
658.000000	0.031957
657.000000	0.031949
656.000000	0.031874
655.000000	0.031854
654.000000	0.031923
653.000000	0.031863
652.000000	0.031730
651.000000	0.031782
650.000000	0.031898
649.000000	0.031857
648.000000	0.031891
647.000000	0.031911
646.000000	0.031949
645.000000	0.031923
644.000000	0.032087
643.000000	0.032097
642.000000	0.031897
641.000000	0.031784
640.000000	0.031872
639.000000	0.031966
638.000000	0.031972
637.000000	0.032035
636.000000	0.032114
635.000000	0.032203
634.000000	0.032060
633.000000	0.032198
632.000000	0.032240
631.000000	0.032143
630.000000	0.032107
629.000000	0.032168
628.000000	0.032112
627.000000	0.032125
626.000000	0.032152
625.000000	0.032211
624.000000	0.032087
623.000000	0.032048
622.000000	0.032061
621.000000	0.032061
620.000000	0.032085
619.000000	0.031941
618.000000	0.032080
617.000000	0.032011
616.000000	0.031922
615.000000	0.031990
614.000000	0.032052
613.000000	0.031927
612.000000	0.031962
611.000000	0.032071
610.000000	0.032086
609.000000	0.032052
608.000000	0.032017
607.000000	0.032125
606.000000	0.032228
605.000000	0.032248
604.000000	0.032142
603.000000	0.032195
602.000000	0.032229
601.000000	0.032163
600.000000	0.032272
599.000000	0.032343
598.000000	0.032045
597.000000	0.032249
596.000000	0.032313
595.000000	0.032290
594.000000	0.032164
593.000000	0.032343
592.000000	0.032349
591.000000	0.032228
590.000000	0.032239
589.000000	0.032381
588.000000	0.032353
587.000000	0.032344
586.000000	0.032397
585.000000	0.032507
584.000000	0.032544
583.000000	0.032506
582.000000	0.032581
581.000000	0.032735
580.000000	0.032607
579.000000	0.032602
578.000000	0.032735
577.000000	0.032846
576.000000	0.032785
575.000000	0.032873
574.000000	0.032931
573.000000	0.032833
572.000000	0.032950
571.000000	0.033035
570.000000	0.033061
569.000000	0.033040
568.000000	0.033088
567.000000	0.033211
566.000000	0.033190
565.000000	0.033173
564.000000	0.033313
563.000000	0.033396
562.000000	0.033448
561.000000	0.033362
560.000000	0.033476
559.000000	0.033471
558.000000	0.033463
557.000000	0.033560
556.000000	0.033654
555.000000	0.033540
554.000000	0.033583
553.000000	0.033718
552.000000	0.033725
551.000000	0.033624
550.000000	0.033741
549.000000	0.033726
548.000000	0.033567
547.000000	0.033597
546.000000	0.033709
545.000000	0.033695
544.000000	0.033550
543.000000	0.033596
542.000000	0.033691
541.000000	0.033586
540.000000	0.033565
539.000000	0.033660
538.000000	0.033626
537.000000	0.033558
536.000000	0.033511
535.000000	0.033580
534.000000	0.033492
533.000000	0.033410
532.000000	0.033431
531.000000	0.033471
530.000000	0.033349
529.000000	0.033298
528.000000	0.033250
527.000000	0.033232
526.000000	0.033154
525.000000	0.033149
524.000000	0.033112
523.000000	0.033049
522.000000	0.033039
521.000000	0.033061
520.000000	0.033003
519.000000	0.032907
518.000000	0.032991
517.000000	0.033066
516.000000	0.032954
515.000000	0.032937
514.000000	0.032985
513.000000	0.033070
512.000000	0.033101
511.000000	0.033156
510.000000	0.033151
509.000000	0.033150
508.000000	0.033093
507.000000	0.033083
506.000000	0.033149
505.000000	0.033148
504.000000	0.033125
503.000000	0.033249
502.000000	0.033268
501.000000	0.033189
500.000000	0.033210
499.000000	0.033354
498.000000	0.033351
497.000000	0.033310
496.000000	0.033372
495.000000	0.033428
494.000000	0.033417
493.000000	0.033487
492.000000	0.033540
491.000000	0.033506
490.000000	0.033508
489.000000	0.033605
488.000000	0.033695
487.000000	0.033713
486.000000	0.033768
485.000000	0.033910
484.000000	0.033944
483.000000	0.033776
482.000000	0.033737
481.000000	0.033837
480.000000	0.033830
479.000000	0.033819
478.000000	0.033864
477.000000	0.033903
476.000000	0.033956
475.000000	0.034018
474.000000	0.034102
473.000000	0.034206
472.000000	0.034243
471.000000	0.034254
470.000000	0.034390
469.000000	0.034476
468.000000	0.034475
467.000000	0.034547
466.000000	0.034648
465.000000	0.034656
464.000000	0.034708
463.000000	0.034921
462.000000	0.035012
461.000000	0.035026
460.000000	0.035092
459.000000	0.035184
458.000000	0.035220
457.000000	0.035282
456.000000	0.035466
455.000000	0.035536
454.000000	0.035488
453.000000	0.035547
452.000000	0.035652
451.000000	0.035661
450.000000	0.035636
449.000000	0.035747
448.000000	0.035831
447.000000	0.035762
446.000000	0.035856
445.000000	0.036024
444.000000	0.036065
443.000000	0.036011
442.000000	0.036023
441.000000	0.036060
440.000000	0.036080
439.000000	0.036068
438.000000	0.036131
437.000000	0.036138
436.000000	0.036061
435.000000	0.035964
434.000000	0.036118
433.000000	0.036150
432.000000	0.036046
431.000000	0.036075
430.000000	0.036113
429.000000	0.035990
428.000000	0.035918
427.000000	0.036024
426.000000	0.036003
425.000000	0.035951
424.000000	0.035887
423.000000	0.035959
422.000000	0.035833
421.000000	0.035750
420.000000	0.035824
419.000000	0.035814
418.000000	0.035668
417.000000	0.035534
416.000000	0.035661
415.000000	0.035685
414.000000	0.035639
413.000000	0.035612
412.000000	0.035745
411.000000	0.035641
410.000000	0.035587
409.000000	0.035653
408.000000	0.035725
407.000000	0.035719
406.000000	0.035700
405.000000	0.035624
404.000000	0.035777
403.000000	0.035850
402.000000	0.035818
401.000000	0.035951
400.000000	0.035862
399.000000	0.035830
398.000000	0.035945
397.000000	0.036064
396.000000	0.036019
395.000000	0.035978
394.000000	0.036092
393.000000	0.036034
392.000000	0.036115
391.000000	0.036170
390.000000	0.036311
389.000000	0.036266
388.000000	0.036304
387.000000	0.036250
386.000000	0.036411
385.000000	0.036432
384.000000	0.036474
383.000000	0.036598
382.000000	0.036483
381.000000	0.036310
380.000000	0.036607
379.000000	0.036740
378.000000	0.036686
377.000000	0.036729
376.000000	0.036921
375.000000	0.037014
374.000000	0.036949
373.000000	0.037182
372.000000	0.037480
371.000000	0.037146
370.000000	0.037235
369.000000	0.037548
368.000000	0.037604
367.000000	0.037589
366.000000	0.037651
365.000000	0.037735
364.000000	0.037726
363.000000	0.037911
362.000000	0.038071
361.000000	0.038219
360.000000	0.038229
359.000000	0.038287
358.000000	0.038391
357.000000	0.038502
356.000000	0.038466
355.000000	0.038802
354.000000	0.038848
353.000000	0.038783
352.000000	0.038927
351.000000	0.039271
350.000000	0.039284
349.000000	0.039244
348.000000	0.039443
347.000000	0.039518
346.000000	0.039589
345.000000	0.039693
344.000000	0.039922
343.000000	0.039985
342.000000	0.039885
341.000000	0.040070
340.000000	0.040224
339.000000	0.040312
338.000000	0.040286
337.000000	0.040613
336.000000	0.040677
335.000000	0.040532
334.000000	0.040786
333.000000	0.040918
332.000000	0.040929
331.000000	0.040920
330.000000	0.041012
329.000000	0.041130
328.000000	0.041255
327.000000	0.041231
326.000000	0.041289
325.000000	0.041313
324.000000	0.041378
323.000000	0.041341
322.000000	0.041579
321.000000	0.041659
320.000000	0.041590
319.000000	0.041819
318.000000	0.041849
317.000000	0.041669
316.000000	0.041791
315.000000	0.041922
314.000000	0.042010
313.000000	0.042225
312.000000	0.042317
311.000000	0.042347
310.000000	0.042500
309.000000	0.042661
308.000000	0.042691
307.000000	0.042660
306.000000	0.042797
305.000000	0.043044
304.000000	0.043023
303.000000	0.043100
302.000000	0.043383
301.000000	0.043568
300.000000	0.043527
299.000000	0.043649
298.000000	0.043829
297.000000	0.043936
296.000000	0.044043
295.000000	0.044222
294.000000	0.044312
293.000000	0.044394
292.000000	0.044547
291.000000	0.044753
290.000000	0.044903
289.000000	0.044990
288.000000	0.045145
287.000000	0.045372
286.000000	0.045421
285.000000	0.045514
284.000000	0.045827
283.000000	0.046000
282.000000	0.046108
281.000000	0.046233
280.000000	0.046408
279.000000	0.046478
278.000000	0.046488
277.000000	0.046731
276.000000	0.046885
275.000000	0.046932
274.000000	0.047120
273.000000	0.047314
272.000000	0.047353
271.000000	0.047410
270.000000	0.047570
269.000000	0.047666
268.000000	0.047762
267.000000	0.047970
266.000000	0.048251
265.000000	0.048370
264.000000	0.048413
263.000000	0.048541
262.000000	0.048715
261.000000	0.048879
260.000000	0.048993
259.000000	0.049271
258.000000	0.049582
257.000000	0.049690
256.000000	0.049881
255.000000	0.050171
254.000000	0.050450
253.000000	0.050647
252.000000	0.050940
251.000000	0.051239
250.000000	0.051444
249.000000	0.051718
248.000000	0.052213
247.000000	0.052659
246.000000	0.052834
245.000000	0.053159
244.000000	0.053730
243.000000	0.054126
242.000000	0.054460
241.000000	0.054912
240.000000	0.055417
239.000000	0.055801
238.000000	0.056281
237.000000	0.056959
236.000000	0.057426
235.000000	0.057889
234.000000	0.058454
233.000000	0.058967
232.000000	0.059547
231.000000	0.060104
230.000000	0.060715
229.000000	0.061303
228.000000	0.061770
227.000000	0.062370
226.000000	0.062962
225.000000	0.063553
224.000000	0.064049
223.000000	0.064841
222.000000	0.065612
221.000000	0.066104
220.000000	0.067015
219.000000	0.067985
218.000000	0.069014
217.000000	0.069991
216.000000	0.071040
215.000000	0.072307
214.000000	0.073640
213.000000	0.075036
212.000000	0.076652
211.000000	0.078322
210.000000	0.080195
209.000000	0.082177
208.000000	0.084495
207.000000	0.087104
206.000000	0.089788
205.000000	0.092708
204.000000	0.095879
203.000000	0.099315
202.000000	0.103169
201.000000	0.107560
200.000000	0.112243
