PE UV       SUBTECH     SPECTRUM    ASCII       PEDS        4.00        
   -1
MQ32508_1CM.Sample.Raw.asc
11/08/25
13:02:18.00
11/08/25
13:02:18.00
Hermanni Kaartokallio

200.000000
1
Lambda 650
650N8121101
PerkinElmer UV WinLab 6.0.2.0723 / 1.61.00 Lambda 650

0
0
2
0
0
UV/VIS
1
1
1
uv/vis/nir detector
0
0
0
0
Fix
 
0
0.24
0
0
0
 
 
 
0
 
0
319.2
0
Front
100
 
 
 
0
0
0
 
0
 
 
 
0
 
 
0
0
0
0
0
 
 
 
 
0
0
#HDR
-1
-1
#GR
nm
A
1.0
0.0
800.000000
-1.000000
601
8
0.129562
0.030199
#DATA
800.000000	0.038149
799.000000	0.038424
798.000000	0.038570
797.000000	0.038504
796.000000	0.038511
795.000000	0.038565
794.000000	0.038692
793.000000	0.038709
792.000000	0.038897
791.000000	0.038853
790.000000	0.038849
789.000000	0.038869
788.000000	0.039004
787.000000	0.039080
786.000000	0.039193
785.000000	0.039292
784.000000	0.039418
783.000000	0.039369
782.000000	0.039510
781.000000	0.039617
780.000000	0.039848
779.000000	0.039862
778.000000	0.039898
777.000000	0.040099
776.000000	0.040200
775.000000	0.040417
774.000000	0.040623
773.000000	0.040565
772.000000	0.040537
771.000000	0.040683
770.000000	0.040826
769.000000	0.040863
768.000000	0.041024
767.000000	0.041037
766.000000	0.040964
765.000000	0.040999
764.000000	0.040933
763.000000	0.040923
762.000000	0.041068
761.000000	0.040977
760.000000	0.040817
759.000000	0.040740
758.000000	0.040618
757.000000	0.040730
756.000000	0.040896
755.000000	0.040875
754.000000	0.040800
753.000000	0.040767
752.000000	0.040806
751.000000	0.040774
750.000000	0.040824
749.000000	0.040755
748.000000	0.040699
747.000000	0.040679
746.000000	0.040701
745.000000	0.040766
744.000000	0.040790
743.000000	0.040714
742.000000	0.040615
741.000000	0.040576
740.000000	0.040498
739.000000	0.040463
738.000000	0.040456
737.000000	0.040157
736.000000	0.039722
735.000000	0.039327
734.000000	0.039015
733.000000	0.038635
732.000000	0.038215
731.000000	0.037646
730.000000	0.037029
729.000000	0.036525
728.000000	0.035991
727.000000	0.035695
726.000000	0.035474
725.000000	0.034989
724.000000	0.034642
723.000000	0.034387
722.000000	0.034121
721.000000	0.033868
720.000000	0.033721
719.000000	0.033421
718.000000	0.033107
717.000000	0.032943
716.000000	0.032833
715.000000	0.032699
714.000000	0.032554
713.000000	0.032357
712.000000	0.032204
711.000000	0.032072
710.000000	0.031986
709.000000	0.031995
708.000000	0.032022
707.000000	0.031879
706.000000	0.031624
705.000000	0.031518
704.000000	0.031414
703.000000	0.031277
702.000000	0.031217
701.000000	0.030972
700.000000	0.030736
699.000000	0.030660
698.000000	0.030603
697.000000	0.030600
696.000000	0.030518
695.000000	0.030371
694.000000	0.030333
693.000000	0.030297
692.000000	0.030199
691.000000	0.030264
690.000000	0.030328
689.000000	0.030477
688.000000	0.030653
687.000000	0.030689
686.000000	0.030620
685.000000	0.030614
684.000000	0.030687
683.000000	0.030728
682.000000	0.030801
681.000000	0.030840
680.000000	0.030858
679.000000	0.030878
678.000000	0.030904
677.000000	0.030983
676.000000	0.031109
675.000000	0.031104
674.000000	0.031009
673.000000	0.031028
672.000000	0.031130
671.000000	0.031127
670.000000	0.031255
669.000000	0.031365
668.000000	0.031268
667.000000	0.031236
666.000000	0.031205
665.000000	0.031113
664.000000	0.031259
663.000000	0.031283
662.000000	0.031226
661.000000	0.031197
660.000000	0.031118
659.000000	0.031079
658.000000	0.031164
657.000000	0.031124
656.000000	0.031008
655.000000	0.031031
654.000000	0.031121
653.000000	0.031051
652.000000	0.031106
651.000000	0.031199
650.000000	0.031211
649.000000	0.031221
648.000000	0.031301
647.000000	0.031355
646.000000	0.031502
645.000000	0.031465
644.000000	0.031379
643.000000	0.031336
642.000000	0.031327
641.000000	0.031458
640.000000	0.031744
639.000000	0.031799
638.000000	0.031767
637.000000	0.031860
636.000000	0.031870
635.000000	0.031894
634.000000	0.031980
633.000000	0.032060
632.000000	0.031980
631.000000	0.031867
630.000000	0.031817
629.000000	0.031923
628.000000	0.031930
627.000000	0.031872
626.000000	0.031800
625.000000	0.031773
624.000000	0.031676
623.000000	0.031628
622.000000	0.031820
621.000000	0.031649
620.000000	0.031645
619.000000	0.031500
618.000000	0.031509
617.000000	0.031501
616.000000	0.031610
615.000000	0.031479
614.000000	0.031578
613.000000	0.031441
612.000000	0.031486
611.000000	0.031593
610.000000	0.031732
609.000000	0.031617
608.000000	0.031576
607.000000	0.031718
606.000000	0.031690
605.000000	0.031813
604.000000	0.031896
603.000000	0.031943
602.000000	0.031802
601.000000	0.031871
600.000000	0.031965
599.000000	0.031985
598.000000	0.032018
597.000000	0.032174
596.000000	0.032037
595.000000	0.032116
594.000000	0.032081
593.000000	0.032185
592.000000	0.032154
591.000000	0.032300
590.000000	0.032320
589.000000	0.032302
588.000000	0.032282
587.000000	0.032287
586.000000	0.032417
585.000000	0.032668
584.000000	0.032643
583.000000	0.032504
582.000000	0.032621
581.000000	0.032709
580.000000	0.032628
579.000000	0.032830
578.000000	0.032886
577.000000	0.032779
576.000000	0.032854
575.000000	0.032949
574.000000	0.033008
573.000000	0.032949
572.000000	0.033053
571.000000	0.033176
570.000000	0.033194
569.000000	0.033163
568.000000	0.033321
567.000000	0.033502
566.000000	0.033437
565.000000	0.033356
564.000000	0.033526
563.000000	0.033507
562.000000	0.033537
561.000000	0.033563
560.000000	0.033652
559.000000	0.033633
558.000000	0.033682
557.000000	0.033761
556.000000	0.033723
555.000000	0.033868
554.000000	0.033832
553.000000	0.033897
552.000000	0.033846
551.000000	0.033784
550.000000	0.033905
549.000000	0.033873
548.000000	0.033849
547.000000	0.033750
546.000000	0.033771
545.000000	0.033651
544.000000	0.033538
543.000000	0.033640
542.000000	0.033643
541.000000	0.033340
540.000000	0.033421
539.000000	0.033460
538.000000	0.033375
537.000000	0.033382
536.000000	0.033420
535.000000	0.033363
534.000000	0.033341
533.000000	0.033293
532.000000	0.033366
531.000000	0.033373
530.000000	0.033263
529.000000	0.033094
528.000000	0.033116
527.000000	0.033014
526.000000	0.033047
525.000000	0.033113
524.000000	0.033067
523.000000	0.032856
522.000000	0.032990
521.000000	0.033037
520.000000	0.032975
519.000000	0.032962
518.000000	0.033013
517.000000	0.032898
516.000000	0.032913
515.000000	0.032957
514.000000	0.032994
513.000000	0.033044
512.000000	0.033023
511.000000	0.033030
510.000000	0.033105
509.000000	0.033105
508.000000	0.033123
507.000000	0.033259
506.000000	0.033240
505.000000	0.033127
504.000000	0.033239
503.000000	0.033362
502.000000	0.033323
501.000000	0.033360
500.000000	0.033405
499.000000	0.033422
498.000000	0.033489
497.000000	0.033511
496.000000	0.033663
495.000000	0.033811
494.000000	0.033732
493.000000	0.033724
492.000000	0.033877
491.000000	0.033903
490.000000	0.033952
489.000000	0.034146
488.000000	0.034173
487.000000	0.034128
486.000000	0.034288
485.000000	0.034432
484.000000	0.034531
483.000000	0.034599
482.000000	0.034609
481.000000	0.034645
480.000000	0.034609
479.000000	0.034623
478.000000	0.034800
477.000000	0.034976
476.000000	0.034843
475.000000	0.034870
474.000000	0.035047
473.000000	0.035115
472.000000	0.035150
471.000000	0.035331
470.000000	0.035360
469.000000	0.035299
468.000000	0.035378
467.000000	0.035505
466.000000	0.035653
465.000000	0.035769
464.000000	0.035717
463.000000	0.035922
462.000000	0.035993
461.000000	0.035990
460.000000	0.036189
459.000000	0.036306
458.000000	0.036181
457.000000	0.036247
456.000000	0.036456
455.000000	0.036566
454.000000	0.036573
453.000000	0.036689
452.000000	0.036640
451.000000	0.036581
450.000000	0.036565
449.000000	0.036739
448.000000	0.036897
447.000000	0.036895
446.000000	0.036891
445.000000	0.037081
444.000000	0.037061
443.000000	0.037036
442.000000	0.037089
441.000000	0.037213
440.000000	0.037062
439.000000	0.037117
438.000000	0.037223
437.000000	0.037234
436.000000	0.037166
435.000000	0.037245
434.000000	0.037290
433.000000	0.037235
432.000000	0.037163
431.000000	0.037246
430.000000	0.037340
429.000000	0.037380
428.000000	0.037136
427.000000	0.037289
426.000000	0.037221
425.000000	0.037220
424.000000	0.037232
423.000000	0.037431
422.000000	0.037082
421.000000	0.037088
420.000000	0.037246
419.000000	0.037243
418.000000	0.037177
417.000000	0.037243
416.000000	0.037146
415.000000	0.037116
414.000000	0.037087
413.000000	0.037207
412.000000	0.037324
411.000000	0.037289
410.000000	0.037105
409.000000	0.037351
408.000000	0.037353
407.000000	0.037404
406.000000	0.037530
405.000000	0.037774
404.000000	0.037485
403.000000	0.037546
402.000000	0.037667
401.000000	0.037831
400.000000	0.037829
399.000000	0.037885
398.000000	0.037836
397.000000	0.037894
396.000000	0.037955
395.000000	0.037983
394.000000	0.038176
393.000000	0.038179
392.000000	0.037929
391.000000	0.038272
390.000000	0.038392
389.000000	0.038309
388.000000	0.038443
387.000000	0.038622
386.000000	0.038332
385.000000	0.038496
384.000000	0.038628
383.000000	0.038680
382.000000	0.038638
381.000000	0.038623
380.000000	0.038733
379.000000	0.038869
378.000000	0.038789
377.000000	0.038865
376.000000	0.038980
375.000000	0.039067
374.000000	0.039073
373.000000	0.039322
372.000000	0.039429
371.000000	0.039427
370.000000	0.039589
369.000000	0.039660
368.000000	0.039738
367.000000	0.039774
366.000000	0.039927
365.000000	0.040163
364.000000	0.040017
363.000000	0.040253
362.000000	0.040345
361.000000	0.040510
360.000000	0.040577
359.000000	0.040902
358.000000	0.040904
357.000000	0.040816
356.000000	0.040862
355.000000	0.041162
354.000000	0.041340
353.000000	0.041431
352.000000	0.041499
351.000000	0.041661
350.000000	0.041701
349.000000	0.041766
348.000000	0.042073
347.000000	0.042140
346.000000	0.042216
345.000000	0.042280
344.000000	0.042514
343.000000	0.042509
342.000000	0.042542
341.000000	0.042821
340.000000	0.042931
339.000000	0.042931
338.000000	0.042871
337.000000	0.043153
336.000000	0.043338
335.000000	0.043417
334.000000	0.043478
333.000000	0.043516
332.000000	0.043634
331.000000	0.043681
330.000000	0.043852
329.000000	0.044031
328.000000	0.044037
327.000000	0.043966
326.000000	0.044158
325.000000	0.044137
324.000000	0.044211
323.000000	0.044385
322.000000	0.044540
321.000000	0.044601
320.000000	0.044572
319.000000	0.044800
318.000000	0.044795
317.000000	0.044805
316.000000	0.045011
315.000000	0.045075
314.000000	0.045015
313.000000	0.045313
312.000000	0.045532
311.000000	0.045611
310.000000	0.045782
309.000000	0.045837
308.000000	0.045867
307.000000	0.045901
306.000000	0.046042
305.000000	0.046392
304.000000	0.046517
303.000000	0.046519
302.000000	0.046815
301.000000	0.046975
300.000000	0.046942
299.000000	0.047220
298.000000	0.047447
297.000000	0.047434
296.000000	0.047564
295.000000	0.047821
294.000000	0.047920
293.000000	0.048086
292.000000	0.048340
291.000000	0.048532
290.000000	0.048624
289.000000	0.048730
288.000000	0.048960
287.000000	0.049196
286.000000	0.049321
285.000000	0.049468
284.000000	0.049810
283.000000	0.049941
282.000000	0.049941
281.000000	0.050218
280.000000	0.050504
279.000000	0.050496
278.000000	0.050515
277.000000	0.050777
276.000000	0.051006
275.000000	0.051173
274.000000	0.051404
273.000000	0.051609
272.000000	0.051629
271.000000	0.051689
270.000000	0.052013
269.000000	0.052290
268.000000	0.052412
267.000000	0.052515
266.000000	0.052737
265.000000	0.052900
264.000000	0.052970
263.000000	0.053271
262.000000	0.053522
261.000000	0.053620
260.000000	0.053843
259.000000	0.054106
258.000000	0.054432
257.000000	0.054731
256.000000	0.055007
255.000000	0.055211
254.000000	0.055509
253.000000	0.055723
252.000000	0.056073
251.000000	0.056609
250.000000	0.056923
249.000000	0.057144
248.000000	0.057580
247.000000	0.058026
246.000000	0.058302
245.000000	0.058972
244.000000	0.059613
243.000000	0.059952
242.000000	0.060262
241.000000	0.060875
240.000000	0.061453
239.000000	0.062073
238.000000	0.062649
237.000000	0.063209
236.000000	0.063770
235.000000	0.064313
234.000000	0.064954
233.000000	0.065705
232.000000	0.066302
231.000000	0.066937
230.000000	0.067700
229.000000	0.068384
228.000000	0.068896
227.000000	0.069719
226.000000	0.070442
225.000000	0.071023
224.000000	0.071781
223.000000	0.072689
222.000000	0.073638
221.000000	0.074590
220.000000	0.075683
219.000000	0.076805
218.000000	0.078071
217.000000	0.079404
216.000000	0.080758
215.000000	0.082577
214.000000	0.084246
213.000000	0.086057
212.000000	0.088131
211.000000	0.090498
210.000000	0.092779
209.000000	0.095324
208.000000	0.098246
207.000000	0.101159
206.000000	0.104314
205.000000	0.107890
204.000000	0.111593
203.000000	0.115558
202.000000	0.119921
201.000000	0.124677
200.000000	0.129562
