PE UV       SUBTECH     SPECTRUM    ASCII       PEDS        4.00        
   -1
MQ42508_1CM.Sample.Raw.asc
11/08/25
13:07:13.00
11/08/25
13:07:13.00
Hermanni Kaartokallio

200.000000
1
Lambda 650
650N8121101
PerkinElmer UV WinLab 6.0.2.0723 / 1.61.00 Lambda 650

0
0
2
0
0
UV/VIS
1
1
1
uv/vis/nir detector
0
0
0
0
Fix
 
0
0.24
0
0
0
 
 
 
0
 
0
319.2
0
Front
100
 
 
 
0
0
0
 
0
 
 
 
0
 
 
0
0
0
0
0
 
 
 
 
0
0
#HDR
-1
-1
#GR
nm
A
1.0
0.0
800.000000
-1.000000
601
8
0.128906
0.030926
#DATA
800.000000	0.038521
799.000000	0.038813
798.000000	0.039066
797.000000	0.038902
796.000000	0.038933
795.000000	0.039076
794.000000	0.039213
793.000000	0.039009
792.000000	0.039306
791.000000	0.039493
790.000000	0.039406
789.000000	0.039235
788.000000	0.039425
787.000000	0.039641
786.000000	0.039698
785.000000	0.039710
784.000000	0.039882
783.000000	0.039966
782.000000	0.039923
781.000000	0.040053
780.000000	0.040541
779.000000	0.040633
778.000000	0.040570
777.000000	0.040737
776.000000	0.041004
775.000000	0.041038
774.000000	0.041205
773.000000	0.041349
772.000000	0.041325
771.000000	0.041472
770.000000	0.041647
769.000000	0.041601
768.000000	0.041708
767.000000	0.041768
766.000000	0.041722
765.000000	0.041820
764.000000	0.041630
763.000000	0.041637
762.000000	0.041860
761.000000	0.041733
760.000000	0.041515
759.000000	0.041465
758.000000	0.041385
757.000000	0.041426
756.000000	0.041473
755.000000	0.041461
754.000000	0.041515
753.000000	0.041319
752.000000	0.041336
751.000000	0.041413
750.000000	0.041486
749.000000	0.041400
748.000000	0.041375
747.000000	0.041410
746.000000	0.041334
745.000000	0.041395
744.000000	0.041536
743.000000	0.041423
742.000000	0.041261
741.000000	0.041233
740.000000	0.041176
739.000000	0.041128
738.000000	0.041033
737.000000	0.040814
736.000000	0.040423
735.000000	0.039980
734.000000	0.039679
733.000000	0.039334
732.000000	0.038920
731.000000	0.038232
730.000000	0.037637
729.000000	0.037195
728.000000	0.036688
727.000000	0.036314
726.000000	0.036133
725.000000	0.035721
724.000000	0.035293
723.000000	0.035032
722.000000	0.034863
721.000000	0.034621
720.000000	0.034396
719.000000	0.034149
718.000000	0.033947
717.000000	0.033678
716.000000	0.033520
715.000000	0.033509
714.000000	0.033355
713.000000	0.033040
712.000000	0.032922
711.000000	0.032888
710.000000	0.032757
709.000000	0.032687
708.000000	0.032765
707.000000	0.032668
706.000000	0.032411
705.000000	0.032300
704.000000	0.032252
703.000000	0.032153
702.000000	0.031995
701.000000	0.031796
700.000000	0.031625
699.000000	0.031461
698.000000	0.031343
697.000000	0.031360
696.000000	0.031299
695.000000	0.031091
694.000000	0.031037
693.000000	0.031018
692.000000	0.030938
691.000000	0.030974
690.000000	0.031070
689.000000	0.031059
688.000000	0.031008
687.000000	0.031073
686.000000	0.031094
685.000000	0.030952
684.000000	0.030926
683.000000	0.031041
682.000000	0.031146
681.000000	0.031171
680.000000	0.031121
679.000000	0.031160
678.000000	0.031157
677.000000	0.031201
676.000000	0.031377
675.000000	0.031423
674.000000	0.031276
673.000000	0.031279
672.000000	0.031405
671.000000	0.031406
670.000000	0.031488
669.000000	0.031561
668.000000	0.031534
667.000000	0.031422
666.000000	0.031330
665.000000	0.031279
664.000000	0.031441
663.000000	0.031448
662.000000	0.031436
661.000000	0.031445
660.000000	0.031363
659.000000	0.031289
658.000000	0.031368
657.000000	0.031402
656.000000	0.031281
655.000000	0.031221
654.000000	0.031353
653.000000	0.031316
652.000000	0.031332
651.000000	0.031401
650.000000	0.031476
649.000000	0.031375
648.000000	0.031398
647.000000	0.031472
646.000000	0.031626
645.000000	0.031623
644.000000	0.031713
643.000000	0.031780
642.000000	0.031809
641.000000	0.031810
640.000000	0.032177
639.000000	0.032249
638.000000	0.032065
637.000000	0.032063
636.000000	0.032169
635.000000	0.032220
634.000000	0.032220
633.000000	0.032311
632.000000	0.032284
631.000000	0.032188
630.000000	0.032181
629.000000	0.032242
628.000000	0.032335
627.000000	0.032202
626.000000	0.032130
625.000000	0.032136
624.000000	0.032020
623.000000	0.031918
622.000000	0.032144
621.000000	0.032059
620.000000	0.031969
619.000000	0.031864
618.000000	0.031963
617.000000	0.031930
616.000000	0.031923
615.000000	0.031932
614.000000	0.031941
613.000000	0.031845
612.000000	0.031841
611.000000	0.031941
610.000000	0.032133
609.000000	0.032012
608.000000	0.031879
607.000000	0.032090
606.000000	0.032139
605.000000	0.032218
604.000000	0.032214
603.000000	0.032303
602.000000	0.032229
601.000000	0.032156
600.000000	0.032334
599.000000	0.032401
598.000000	0.032418
597.000000	0.032433
596.000000	0.032466
595.000000	0.032462
594.000000	0.032338
593.000000	0.032464
592.000000	0.032561
591.000000	0.032651
590.000000	0.032553
589.000000	0.032555
588.000000	0.032606
587.000000	0.032581
586.000000	0.032722
585.000000	0.033015
584.000000	0.032978
583.000000	0.032833
582.000000	0.032954
581.000000	0.033029
580.000000	0.033036
579.000000	0.033124
578.000000	0.033192
577.000000	0.033210
576.000000	0.033117
575.000000	0.033280
574.000000	0.033390
573.000000	0.033429
572.000000	0.033423
571.000000	0.033406
570.000000	0.033532
569.000000	0.033546
568.000000	0.033555
567.000000	0.033755
566.000000	0.033769
565.000000	0.033633
564.000000	0.033802
563.000000	0.033876
562.000000	0.033949
561.000000	0.033865
560.000000	0.034038
559.000000	0.034005
558.000000	0.033958
557.000000	0.033990
556.000000	0.034038
555.000000	0.034024
554.000000	0.034163
553.000000	0.034272
552.000000	0.034245
551.000000	0.034142
550.000000	0.034230
549.000000	0.034229
548.000000	0.034219
547.000000	0.034136
546.000000	0.034102
545.000000	0.034120
544.000000	0.034011
543.000000	0.034034
542.000000	0.034221
541.000000	0.034035
540.000000	0.033845
539.000000	0.033924
538.000000	0.033917
537.000000	0.033867
536.000000	0.033921
535.000000	0.033923
534.000000	0.033810
533.000000	0.033688
532.000000	0.033712
531.000000	0.033699
530.000000	0.033663
529.000000	0.033598
528.000000	0.033492
527.000000	0.033524
526.000000	0.033523
525.000000	0.033565
524.000000	0.033644
523.000000	0.033507
522.000000	0.033449
521.000000	0.033451
520.000000	0.033434
519.000000	0.033424
518.000000	0.033535
517.000000	0.033544
516.000000	0.033495
515.000000	0.033454
514.000000	0.033446
513.000000	0.033523
512.000000	0.033628
511.000000	0.033582
510.000000	0.033525
509.000000	0.033522
508.000000	0.033501
507.000000	0.033594
506.000000	0.033759
505.000000	0.033738
504.000000	0.033662
503.000000	0.033733
502.000000	0.033786
501.000000	0.033846
500.000000	0.033915
499.000000	0.033935
498.000000	0.033956
497.000000	0.033943
496.000000	0.034014
495.000000	0.034199
494.000000	0.034295
493.000000	0.034288
492.000000	0.034331
491.000000	0.034367
490.000000	0.034386
489.000000	0.034534
488.000000	0.034683
487.000000	0.034697
486.000000	0.034718
485.000000	0.034813
484.000000	0.034896
483.000000	0.035005
482.000000	0.035105
481.000000	0.035115
480.000000	0.035095
479.000000	0.035109
478.000000	0.035150
477.000000	0.035348
476.000000	0.035439
475.000000	0.035385
474.000000	0.035415
473.000000	0.035481
472.000000	0.035525
471.000000	0.035643
470.000000	0.035803
469.000000	0.035814
468.000000	0.035806
467.000000	0.035873
466.000000	0.035992
465.000000	0.036191
464.000000	0.036289
463.000000	0.036334
462.000000	0.036352
461.000000	0.036389
460.000000	0.036512
459.000000	0.036687
458.000000	0.036776
457.000000	0.036730
456.000000	0.036797
455.000000	0.036940
454.000000	0.037030
453.000000	0.037108
452.000000	0.037175
451.000000	0.037115
450.000000	0.037094
449.000000	0.037221
448.000000	0.037325
447.000000	0.037423
446.000000	0.037493
445.000000	0.037507
444.000000	0.037538
443.000000	0.037584
442.000000	0.037597
441.000000	0.037720
440.000000	0.037791
439.000000	0.037708
438.000000	0.037754
437.000000	0.037787
436.000000	0.037731
435.000000	0.037791
434.000000	0.037904
433.000000	0.037833
432.000000	0.037719
431.000000	0.037684
430.000000	0.037751
429.000000	0.037893
428.000000	0.037849
427.000000	0.037760
426.000000	0.037763
425.000000	0.037790
424.000000	0.037783
423.000000	0.037934
422.000000	0.037820
421.000000	0.037651
420.000000	0.037671
419.000000	0.037781
418.000000	0.037627
417.000000	0.037625
416.000000	0.037680
415.000000	0.037629
414.000000	0.037614
413.000000	0.037632
412.000000	0.037665
411.000000	0.037812
410.000000	0.037781
409.000000	0.037708
408.000000	0.037783
407.000000	0.037822
406.000000	0.037843
405.000000	0.037972
404.000000	0.038008
403.000000	0.037867
402.000000	0.037902
401.000000	0.038053
400.000000	0.038030
399.000000	0.038216
398.000000	0.038282
397.000000	0.038202
396.000000	0.038321
395.000000	0.038270
394.000000	0.038325
393.000000	0.038577
392.000000	0.038508
391.000000	0.038468
390.000000	0.038619
389.000000	0.038679
388.000000	0.038713
387.000000	0.038807
386.000000	0.038930
385.000000	0.038801
384.000000	0.038850
383.000000	0.038993
382.000000	0.038874
381.000000	0.039087
380.000000	0.039197
379.000000	0.039167
378.000000	0.039160
377.000000	0.039164
376.000000	0.039333
375.000000	0.039393
374.000000	0.039397
373.000000	0.039528
372.000000	0.039776
371.000000	0.039841
370.000000	0.039885
369.000000	0.039953
368.000000	0.040139
367.000000	0.040103
366.000000	0.040228
365.000000	0.040574
364.000000	0.040510
363.000000	0.040463
362.000000	0.040646
361.000000	0.040763
360.000000	0.040958
359.000000	0.041105
358.000000	0.041102
357.000000	0.041166
356.000000	0.041265
355.000000	0.041431
354.000000	0.041595
353.000000	0.041816
352.000000	0.041837
351.000000	0.041929
350.000000	0.042064
349.000000	0.042105
348.000000	0.042274
347.000000	0.042418
346.000000	0.042588
345.000000	0.042543
344.000000	0.042712
343.000000	0.042805
342.000000	0.042835
341.000000	0.043069
340.000000	0.043095
339.000000	0.043252
338.000000	0.043202
337.000000	0.043451
336.000000	0.043583
335.000000	0.043705
334.000000	0.043751
333.000000	0.043802
332.000000	0.043942
331.000000	0.043985
330.000000	0.044028
329.000000	0.044291
328.000000	0.044357
327.000000	0.044310
326.000000	0.044377
325.000000	0.044361
324.000000	0.044517
323.000000	0.044653
322.000000	0.044770
321.000000	0.044799
320.000000	0.044825
319.000000	0.045014
318.000000	0.045013
317.000000	0.045095
316.000000	0.045385
315.000000	0.045436
314.000000	0.045359
313.000000	0.045542
312.000000	0.045687
311.000000	0.045877
310.000000	0.046100
309.000000	0.046156
308.000000	0.046203
307.000000	0.046252
306.000000	0.046302
305.000000	0.046607
304.000000	0.046827
303.000000	0.046835
302.000000	0.047020
301.000000	0.047227
300.000000	0.047256
299.000000	0.047433
298.000000	0.047645
297.000000	0.047698
296.000000	0.047821
295.000000	0.048025
294.000000	0.048156
293.000000	0.048452
292.000000	0.048773
291.000000	0.048792
290.000000	0.048852
289.000000	0.048953
288.000000	0.049113
287.000000	0.049462
286.000000	0.049772
285.000000	0.049849
284.000000	0.050021
283.000000	0.050221
282.000000	0.050358
281.000000	0.050614
280.000000	0.050792
279.000000	0.050768
278.000000	0.050834
277.000000	0.051005
276.000000	0.051204
275.000000	0.051472
274.000000	0.051700
273.000000	0.051867
272.000000	0.051956
271.000000	0.052032
270.000000	0.052252
269.000000	0.052538
268.000000	0.052788
267.000000	0.052902
266.000000	0.052986
265.000000	0.053207
264.000000	0.053409
263.000000	0.053643
262.000000	0.053871
261.000000	0.053993
260.000000	0.054176
259.000000	0.054389
258.000000	0.054692
257.000000	0.055044
256.000000	0.055363
255.000000	0.055522
254.000000	0.055787
253.000000	0.056125
252.000000	0.056425
251.000000	0.056881
250.000000	0.057283
249.000000	0.057507
248.000000	0.057865
247.000000	0.058366
246.000000	0.058724
245.000000	0.059285
244.000000	0.059809
243.000000	0.060299
242.000000	0.060666
241.000000	0.061141
240.000000	0.061708
239.000000	0.062449
238.000000	0.063065
237.000000	0.063463
236.000000	0.063998
235.000000	0.064679
234.000000	0.065284
233.000000	0.065982
232.000000	0.066609
231.000000	0.067386
230.000000	0.067971
229.000000	0.068622
228.000000	0.069270
227.000000	0.070060
226.000000	0.070662
225.000000	0.071295
224.000000	0.072101
223.000000	0.073035
222.000000	0.073859
221.000000	0.074805
220.000000	0.075911
219.000000	0.076941
218.000000	0.078257
217.000000	0.079573
216.000000	0.080985
215.000000	0.082557
214.000000	0.084139
213.000000	0.086005
212.000000	0.088044
211.000000	0.090298
210.000000	0.092625
209.000000	0.095161
208.000000	0.097866
207.000000	0.100826
206.000000	0.104022
205.000000	0.107392
204.000000	0.111180
203.000000	0.115073
202.000000	0.119356
201.000000	0.124223
200.000000	0.128906
