PE UV       SUBTECH     SPECTRUM    ASCII       PEDS        4.00        
   -1
MQ52508_1CM.Sample.Raw.asc
11/08/25
14:58:55.00
11/08/25
14:58:55.00
Hermanni Kaartokallio

200.000000
1
Lambda 650
650N8121101
PerkinElmer UV WinLab 6.0.2.0723 / 1.61.00 Lambda 650

0
0
2
0
0
UV/VIS
1
1
1
uv/vis/nir detector
0
0
0
0
Fix
 
0
0.24
0
0
0
 
 
 
0
 
0
319.2
0
Front
100
 
 
 
0
0
0
 
0
 
 
 
0
 
 
0
0
0
0
0
 
 
 
 
0
0
#HDR
-1
-1
#GR
nm
A
1.0
0.0
800.000000
-1.000000
601
8
0.135174
0.030707
#DATA
800.000000	0.038572
799.000000	0.038754
798.000000	0.038859
797.000000	0.038974
796.000000	0.039045
795.000000	0.038974
794.000000	0.039219
793.000000	0.039006
792.000000	0.039180
791.000000	0.039225
790.000000	0.039386
789.000000	0.039255
788.000000	0.039411
787.000000	0.039542
786.000000	0.039472
785.000000	0.039510
784.000000	0.039877
783.000000	0.039845
782.000000	0.039806
781.000000	0.039994
780.000000	0.040269
779.000000	0.040260
778.000000	0.040402
777.000000	0.040669
776.000000	0.040780
775.000000	0.040886
774.000000	0.040977
773.000000	0.041109
772.000000	0.041248
771.000000	0.041325
770.000000	0.041514
769.000000	0.041555
768.000000	0.041591
767.000000	0.041487
766.000000	0.041666
765.000000	0.041723
764.000000	0.041600
763.000000	0.041636
762.000000	0.041626
761.000000	0.041475
760.000000	0.041367
759.000000	0.041380
758.000000	0.041354
757.000000	0.041223
756.000000	0.041194
755.000000	0.041149
754.000000	0.041314
753.000000	0.041176
752.000000	0.041265
751.000000	0.041241
750.000000	0.041238
749.000000	0.041080
748.000000	0.041212
747.000000	0.041217
746.000000	0.041229
745.000000	0.041226
744.000000	0.041241
743.000000	0.041105
742.000000	0.041051
741.000000	0.041102
740.000000	0.040996
739.000000	0.040879
738.000000	0.040739
737.000000	0.040570
736.000000	0.040346
735.000000	0.039841
734.000000	0.039479
733.000000	0.039110
732.000000	0.038561
731.000000	0.037920
730.000000	0.037579
729.000000	0.037079
728.000000	0.036558
727.000000	0.036138
726.000000	0.035860
725.000000	0.035465
724.000000	0.035222
723.000000	0.034938
722.000000	0.034719
721.000000	0.034400
720.000000	0.034170
719.000000	0.033960
718.000000	0.033768
717.000000	0.033514
716.000000	0.033435
715.000000	0.033379
714.000000	0.033115
713.000000	0.032844
712.000000	0.032895
711.000000	0.032837
710.000000	0.032647
709.000000	0.032491
708.000000	0.032530
707.000000	0.032486
706.000000	0.032329
705.000000	0.032244
704.000000	0.032166
703.000000	0.031999
702.000000	0.031771
701.000000	0.031615
700.000000	0.031496
699.000000	0.031332
698.000000	0.031208
697.000000	0.031190
696.000000	0.031032
695.000000	0.030824
694.000000	0.030855
693.000000	0.030831
692.000000	0.030712
691.000000	0.030712
690.000000	0.030707
689.000000	0.030763
688.000000	0.030866
687.000000	0.030846
686.000000	0.030824
685.000000	0.030798
684.000000	0.030832
683.000000	0.030911
682.000000	0.030863
681.000000	0.030818
680.000000	0.030949
679.000000	0.031034
678.000000	0.031023
677.000000	0.031081
676.000000	0.031219
675.000000	0.031109
674.000000	0.031055
673.000000	0.031195
672.000000	0.031305
671.000000	0.031259
670.000000	0.031262
669.000000	0.031321
668.000000	0.031427
667.000000	0.031324
666.000000	0.031270
665.000000	0.031262
664.000000	0.031301
663.000000	0.031180
662.000000	0.031322
661.000000	0.031383
660.000000	0.031270
659.000000	0.031208
658.000000	0.031283
657.000000	0.031235
656.000000	0.031162
655.000000	0.031190
654.000000	0.031331
653.000000	0.031244
652.000000	0.031219
651.000000	0.031266
650.000000	0.031375
649.000000	0.031362
648.000000	0.031468
647.000000	0.031493
646.000000	0.031628
645.000000	0.031553
644.000000	0.031763
643.000000	0.031836
642.000000	0.031887
641.000000	0.031960
640.000000	0.032152
639.000000	0.032159
638.000000	0.032210
637.000000	0.032222
636.000000	0.032370
635.000000	0.032422
634.000000	0.032365
633.000000	0.032397
632.000000	0.032504
631.000000	0.032375
630.000000	0.032428
629.000000	0.032442
628.000000	0.032516
627.000000	0.032278
626.000000	0.032272
625.000000	0.032321
624.000000	0.032222
623.000000	0.032186
622.000000	0.032358
621.000000	0.032115
620.000000	0.032082
619.000000	0.031994
618.000000	0.032100
617.000000	0.032057
616.000000	0.032001
615.000000	0.032117
614.000000	0.032277
613.000000	0.032025
612.000000	0.032032
611.000000	0.032133
610.000000	0.032212
609.000000	0.032040
608.000000	0.032150
607.000000	0.032303
606.000000	0.032318
605.000000	0.032309
604.000000	0.032336
603.000000	0.032276
602.000000	0.032387
601.000000	0.032366
600.000000	0.032531
599.000000	0.032554
598.000000	0.032460
597.000000	0.032509
596.000000	0.032579
595.000000	0.032605
594.000000	0.032530
593.000000	0.032648
592.000000	0.032727
591.000000	0.032681
590.000000	0.032579
589.000000	0.032807
588.000000	0.032818
587.000000	0.032791
586.000000	0.032939
585.000000	0.033102
584.000000	0.032957
583.000000	0.033057
582.000000	0.033148
581.000000	0.033248
580.000000	0.033173
579.000000	0.033268
578.000000	0.033224
577.000000	0.033440
576.000000	0.033386
575.000000	0.033522
574.000000	0.033627
573.000000	0.033578
572.000000	0.033567
571.000000	0.033683
570.000000	0.033782
569.000000	0.033805
568.000000	0.033861
567.000000	0.034031
566.000000	0.033878
565.000000	0.033926
564.000000	0.034081
563.000000	0.034104
562.000000	0.034169
561.000000	0.034172
560.000000	0.034257
559.000000	0.034131
558.000000	0.034333
557.000000	0.034367
556.000000	0.034377
555.000000	0.034324
554.000000	0.034373
553.000000	0.034368
552.000000	0.034518
551.000000	0.034410
550.000000	0.034597
549.000000	0.034681
548.000000	0.034471
547.000000	0.034305
546.000000	0.034495
545.000000	0.034461
544.000000	0.034343
543.000000	0.034443
542.000000	0.034497
541.000000	0.034226
540.000000	0.034237
539.000000	0.034303
538.000000	0.034278
537.000000	0.034168
536.000000	0.034176
535.000000	0.034113
534.000000	0.034130
533.000000	0.033986
532.000000	0.034026
531.000000	0.034034
530.000000	0.034005
529.000000	0.034031
528.000000	0.033976
527.000000	0.033915
526.000000	0.033902
525.000000	0.033937
524.000000	0.033893
523.000000	0.033728
522.000000	0.033829
521.000000	0.033857
520.000000	0.033820
519.000000	0.033765
518.000000	0.033764
517.000000	0.033738
516.000000	0.033792
515.000000	0.033769
514.000000	0.033752
513.000000	0.033819
512.000000	0.033824
511.000000	0.033782
510.000000	0.033864
509.000000	0.033914
508.000000	0.033839
507.000000	0.033908
506.000000	0.033931
505.000000	0.033892
504.000000	0.033977
503.000000	0.034072
502.000000	0.034132
501.000000	0.034180
500.000000	0.034158
499.000000	0.034217
498.000000	0.034334
497.000000	0.034315
496.000000	0.034444
495.000000	0.034592
494.000000	0.034518
493.000000	0.034530
492.000000	0.034710
491.000000	0.034759
490.000000	0.034806
489.000000	0.034935
488.000000	0.034996
487.000000	0.035052
486.000000	0.035189
485.000000	0.035308
484.000000	0.035423
483.000000	0.035474
482.000000	0.035448
481.000000	0.035499
480.000000	0.035587
479.000000	0.035567
478.000000	0.035636
477.000000	0.035801
476.000000	0.035730
475.000000	0.035768
474.000000	0.035907
473.000000	0.035988
472.000000	0.036016
471.000000	0.036047
470.000000	0.036141
469.000000	0.036241
468.000000	0.036295
467.000000	0.036353
466.000000	0.036509
465.000000	0.036644
464.000000	0.036573
463.000000	0.036738
462.000000	0.036883
461.000000	0.036882
460.000000	0.036988
459.000000	0.037120
458.000000	0.037057
457.000000	0.037089
456.000000	0.037299
455.000000	0.037497
454.000000	0.037538
453.000000	0.037492
452.000000	0.037447
451.000000	0.037547
450.000000	0.037552
449.000000	0.037703
448.000000	0.037858
447.000000	0.037913
446.000000	0.037862
445.000000	0.038053
444.000000	0.038145
443.000000	0.038111
442.000000	0.038145
441.000000	0.038206
440.000000	0.038121
439.000000	0.038260
438.000000	0.038312
437.000000	0.038375
436.000000	0.038349
435.000000	0.038342
434.000000	0.038406
433.000000	0.038523
432.000000	0.038355
431.000000	0.038311
430.000000	0.038369
429.000000	0.038423
428.000000	0.038249
427.000000	0.038369
426.000000	0.038452
425.000000	0.038466
424.000000	0.038423
423.000000	0.038459
422.000000	0.038315
421.000000	0.038301
420.000000	0.038295
419.000000	0.038414
418.000000	0.038322
417.000000	0.038245
416.000000	0.038164
415.000000	0.038341
414.000000	0.038276
413.000000	0.038307
412.000000	0.038358
411.000000	0.038399
410.000000	0.038238
409.000000	0.038432
408.000000	0.038474
407.000000	0.038496
406.000000	0.038466
405.000000	0.038526
404.000000	0.038437
403.000000	0.038436
402.000000	0.038596
401.000000	0.038772
400.000000	0.038781
399.000000	0.038870
398.000000	0.038799
397.000000	0.038989
396.000000	0.039021
395.000000	0.039020
394.000000	0.039076
393.000000	0.039221
392.000000	0.038980
391.000000	0.039232
390.000000	0.039371
389.000000	0.039457
388.000000	0.039469
387.000000	0.039468
386.000000	0.039474
385.000000	0.039643
384.000000	0.039655
383.000000	0.039769
382.000000	0.039735
381.000000	0.039748
380.000000	0.039731
379.000000	0.040014
378.000000	0.039831
377.000000	0.039844
376.000000	0.039841
375.000000	0.040153
374.000000	0.040097
373.000000	0.040307
372.000000	0.040483
371.000000	0.040598
370.000000	0.040428
369.000000	0.040748
368.000000	0.040931
367.000000	0.040947
366.000000	0.041009
365.000000	0.041251
364.000000	0.041139
363.000000	0.041404
362.000000	0.041478
361.000000	0.041718
360.000000	0.041827
359.000000	0.041897
358.000000	0.041749
357.000000	0.042004
356.000000	0.042121
355.000000	0.042373
354.000000	0.042486
353.000000	0.042572
352.000000	0.042531
351.000000	0.042902
350.000000	0.043005
349.000000	0.043095
348.000000	0.043160
347.000000	0.043283
346.000000	0.043358
345.000000	0.043541
344.000000	0.043721
343.000000	0.043827
342.000000	0.043829
341.000000	0.044010
340.000000	0.043995
339.000000	0.044222
338.000000	0.044239
337.000000	0.044487
336.000000	0.044628
335.000000	0.044621
334.000000	0.044695
333.000000	0.044890
332.000000	0.045005
331.000000	0.045084
330.000000	0.045089
329.000000	0.045272
328.000000	0.045315
327.000000	0.045442
326.000000	0.045479
325.000000	0.045495
324.000000	0.045643
323.000000	0.045656
322.000000	0.045692
321.000000	0.045981
320.000000	0.046045
319.000000	0.046181
318.000000	0.046335
317.000000	0.046521
316.000000	0.046698
315.000000	0.046669
314.000000	0.046718
313.000000	0.046967
312.000000	0.047097
311.000000	0.047282
310.000000	0.047441
309.000000	0.047544
308.000000	0.047771
307.000000	0.047742
306.000000	0.047775
305.000000	0.048067
304.000000	0.048168
303.000000	0.048279
302.000000	0.048624
301.000000	0.048769
300.000000	0.048767
299.000000	0.048924
298.000000	0.049092
297.000000	0.049227
296.000000	0.049457
295.000000	0.049608
294.000000	0.049778
293.000000	0.050016
292.000000	0.050144
291.000000	0.050191
290.000000	0.050473
289.000000	0.050713
288.000000	0.050875
287.000000	0.051138
286.000000	0.051230
285.000000	0.051360
284.000000	0.051737
283.000000	0.051909
282.000000	0.052074
281.000000	0.052296
280.000000	0.052342
279.000000	0.052498
278.000000	0.052689
277.000000	0.052820
276.000000	0.052997
275.000000	0.053252
274.000000	0.053427
273.000000	0.053638
272.000000	0.053813
271.000000	0.053961
270.000000	0.054173
269.000000	0.054304
268.000000	0.054444
267.000000	0.054749
266.000000	0.054980
265.000000	0.055096
264.000000	0.055257
263.000000	0.055497
262.000000	0.055614
261.000000	0.055858
260.000000	0.056153
259.000000	0.056378
258.000000	0.056708
257.000000	0.057034
256.000000	0.057246
255.000000	0.057471
254.000000	0.057823
253.000000	0.058177
252.000000	0.058547
251.000000	0.058925
250.000000	0.059186
249.000000	0.059617
248.000000	0.060071
247.000000	0.060522
246.000000	0.060895
245.000000	0.061424
244.000000	0.061837
243.000000	0.062473
242.000000	0.062977
241.000000	0.063462
240.000000	0.063997
239.000000	0.064620
238.000000	0.065133
237.000000	0.065813
236.000000	0.066473
235.000000	0.067165
234.000000	0.067775
233.000000	0.068438
232.000000	0.069061
231.000000	0.069895
230.000000	0.070528
229.000000	0.071288
228.000000	0.071983
227.000000	0.072813
226.000000	0.073385
225.000000	0.074171
224.000000	0.075022
223.000000	0.075908
222.000000	0.076944
221.000000	0.077991
220.000000	0.079013
219.000000	0.080257
218.000000	0.081616
217.000000	0.083147
216.000000	0.084659
215.000000	0.086296
214.000000	0.088069
213.000000	0.090320
212.000000	0.092548
211.000000	0.094813
210.000000	0.097253
209.000000	0.099903
208.000000	0.102571
207.000000	0.105849
206.000000	0.109292
205.000000	0.112734
204.000000	0.116697
203.000000	0.120718
202.000000	0.125213
201.000000	0.130240
200.000000	0.135174
