PE UV       SUBTECH     SPECTRUM    ASCII       PEDS        4.00        
   -1
MQ62508_1CM.Sample.Raw.asc
11/08/25
15:04:14.00
11/08/25
15:04:14.00
Hermanni Kaartokallio

200.000000
1
Lambda 650
650N8121101
PerkinElmer UV WinLab 6.0.2.0723 / 1.61.00 Lambda 650

0
0
2
0
0
UV/VIS
1
1
1
uv/vis/nir detector
0
0
0
0
Fix
 
0
0.24
0
0
0
 
 
 
0
 
0
319.2
0
Front
100
 
 
 
0
0
0
 
0
 
 
 
0
 
 
0
0
0
0
0
 
 
 
 
0
0
#HDR
-1
-1
#GR
nm
A
1.0
0.0
800.000000
-1.000000
601
8
0.132034
0.029635
#DATA
800.000000	0.037272
799.000000	0.037435
798.000000	0.037560
797.000000	0.037379
796.000000	0.037684
795.000000	0.037722
794.000000	0.037807
793.000000	0.037732
792.000000	0.037904
791.000000	0.037828
790.000000	0.038100
789.000000	0.037993
788.000000	0.038232
787.000000	0.038307
786.000000	0.038375
785.000000	0.038349
784.000000	0.038747
783.000000	0.038704
782.000000	0.038792
781.000000	0.039005
780.000000	0.039141
779.000000	0.039032
778.000000	0.039369
777.000000	0.039585
776.000000	0.039650
775.000000	0.039746
774.000000	0.039912
773.000000	0.039893
772.000000	0.040070
771.000000	0.040167
770.000000	0.040306
769.000000	0.040303
768.000000	0.040340
767.000000	0.040295
766.000000	0.040393
765.000000	0.040448
764.000000	0.040339
763.000000	0.040351
762.000000	0.040362
761.000000	0.040117
760.000000	0.040188
759.000000	0.040186
758.000000	0.040031
757.000000	0.040038
756.000000	0.040083
755.000000	0.039966
754.000000	0.040008
753.000000	0.039957
752.000000	0.040039
751.000000	0.040069
750.000000	0.039980
749.000000	0.039979
748.000000	0.040132
747.000000	0.039998
746.000000	0.040034
745.000000	0.040066
744.000000	0.040087
743.000000	0.039896
742.000000	0.039979
741.000000	0.039961
740.000000	0.039907
739.000000	0.039749
738.000000	0.039616
737.000000	0.039461
736.000000	0.039191
735.000000	0.038742
734.000000	0.038390
733.000000	0.038027
732.000000	0.037431
731.000000	0.036852
730.000000	0.036434
729.000000	0.035914
728.000000	0.035401
727.000000	0.035088
726.000000	0.034765
725.000000	0.034309
724.000000	0.034071
723.000000	0.033779
722.000000	0.033532
721.000000	0.033252
720.000000	0.032984
719.000000	0.032788
718.000000	0.032646
717.000000	0.032436
716.000000	0.032344
715.000000	0.032167
714.000000	0.031900
713.000000	0.031713
712.000000	0.031747
711.000000	0.031651
710.000000	0.031474
709.000000	0.031353
708.000000	0.031353
707.000000	0.031285
706.000000	0.031175
705.000000	0.031056
704.000000	0.030961
703.000000	0.030806
702.000000	0.030565
701.000000	0.030407
700.000000	0.030342
699.000000	0.030177
698.000000	0.030128
697.000000	0.030106
696.000000	0.029843
695.000000	0.029679
694.000000	0.029781
693.000000	0.029753
692.000000	0.029644
691.000000	0.029685
690.000000	0.029659
689.000000	0.029636
688.000000	0.029678
687.000000	0.029635
686.000000	0.029680
685.000000	0.029695
684.000000	0.029722
683.000000	0.029815
682.000000	0.029799
681.000000	0.029735
680.000000	0.029886
679.000000	0.029951
678.000000	0.029912
677.000000	0.029988
676.000000	0.030077
675.000000	0.029968
674.000000	0.029943
673.000000	0.030073
672.000000	0.030165
671.000000	0.030168
670.000000	0.030182
669.000000	0.030187
668.000000	0.030247
667.000000	0.030222
666.000000	0.030229
665.000000	0.030182
664.000000	0.030208
663.000000	0.030068
662.000000	0.030209
661.000000	0.030401
660.000000	0.030354
659.000000	0.030375
658.000000	0.030444
657.000000	0.030298
656.000000	0.030325
655.000000	0.030426
654.000000	0.030493
653.000000	0.030414
652.000000	0.030441
651.000000	0.030443
650.000000	0.030621
649.000000	0.030625
648.000000	0.030737
647.000000	0.030783
646.000000	0.030869
645.000000	0.030758
644.000000	0.031064
643.000000	0.031179
642.000000	0.031170
641.000000	0.031259
640.000000	0.031506
639.000000	0.031397
638.000000	0.031553
637.000000	0.031659
636.000000	0.031759
635.000000	0.031761
634.000000	0.031742
633.000000	0.031690
632.000000	0.031985
631.000000	0.031829
630.000000	0.031780
629.000000	0.031988
628.000000	0.031880
627.000000	0.031635
626.000000	0.031802
625.000000	0.031788
624.000000	0.031710
623.000000	0.031575
622.000000	0.031712
621.000000	0.031533
620.000000	0.031612
619.000000	0.031417
618.000000	0.031365
617.000000	0.031303
616.000000	0.031440
615.000000	0.031508
614.000000	0.031688
613.000000	0.031526
612.000000	0.031600
611.000000	0.031743
610.000000	0.031793
609.000000	0.031579
608.000000	0.031778
607.000000	0.031793
606.000000	0.031747
605.000000	0.031728
604.000000	0.031796
603.000000	0.031672
602.000000	0.031795
601.000000	0.031814
600.000000	0.031934
599.000000	0.031898
598.000000	0.031815
597.000000	0.031800
596.000000	0.032005
595.000000	0.031957
594.000000	0.031854
593.000000	0.032010
592.000000	0.032030
591.000000	0.032029
590.000000	0.031853
589.000000	0.032159
588.000000	0.032087
587.000000	0.032040
586.000000	0.032164
585.000000	0.032324
584.000000	0.032175
583.000000	0.032294
582.000000	0.032380
581.000000	0.032508
580.000000	0.032491
579.000000	0.032546
578.000000	0.032520
577.000000	0.032750
576.000000	0.032638
575.000000	0.032884
574.000000	0.032937
573.000000	0.032881
572.000000	0.032899
571.000000	0.033093
570.000000	0.033166
569.000000	0.033115
568.000000	0.033201
567.000000	0.033316
566.000000	0.033241
565.000000	0.033350
564.000000	0.033481
563.000000	0.033483
562.000000	0.033458
561.000000	0.033528
560.000000	0.033570
559.000000	0.033382
558.000000	0.033580
557.000000	0.033671
556.000000	0.033649
555.000000	0.033561
554.000000	0.033662
553.000000	0.033657
552.000000	0.033782
551.000000	0.033664
550.000000	0.033869
549.000000	0.033843
548.000000	0.033641
547.000000	0.033545
546.000000	0.033849
545.000000	0.033826
544.000000	0.033665
543.000000	0.033716
542.000000	0.033775
541.000000	0.033538
540.000000	0.033724
539.000000	0.033746
538.000000	0.033656
537.000000	0.033548
536.000000	0.033465
535.000000	0.033357
534.000000	0.033411
533.000000	0.033442
532.000000	0.033525
531.000000	0.033493
530.000000	0.033348
529.000000	0.033345
528.000000	0.033323
527.000000	0.033256
526.000000	0.033231
525.000000	0.033292
524.000000	0.033375
523.000000	0.033355
522.000000	0.033291
521.000000	0.033266
520.000000	0.033174
519.000000	0.033089
518.000000	0.033184
517.000000	0.033231
516.000000	0.033188
515.000000	0.033029
514.000000	0.033026
513.000000	0.033095
512.000000	0.033031
511.000000	0.033037
510.000000	0.033186
509.000000	0.033132
508.000000	0.033043
507.000000	0.033135
506.000000	0.033166
505.000000	0.033132
504.000000	0.033215
503.000000	0.033274
502.000000	0.033304
501.000000	0.033325
500.000000	0.033317
499.000000	0.033408
498.000000	0.033490
497.000000	0.033450
496.000000	0.033588
495.000000	0.033740
494.000000	0.033715
493.000000	0.033722
492.000000	0.033886
491.000000	0.033958
490.000000	0.033977
489.000000	0.034094
488.000000	0.034175
487.000000	0.034236
486.000000	0.034387
485.000000	0.034563
484.000000	0.034636
483.000000	0.034655
482.000000	0.034656
481.000000	0.034763
480.000000	0.034785
479.000000	0.034753
478.000000	0.034857
477.000000	0.034985
476.000000	0.034940
475.000000	0.035029
474.000000	0.035145
473.000000	0.035209
472.000000	0.035207
471.000000	0.035235
470.000000	0.035263
469.000000	0.035320
468.000000	0.035372
467.000000	0.035463
466.000000	0.035606
465.000000	0.035695
464.000000	0.035751
463.000000	0.035937
462.000000	0.035951
461.000000	0.035914
460.000000	0.036051
459.000000	0.036183
458.000000	0.036333
457.000000	0.036409
456.000000	0.036500
455.000000	0.036574
454.000000	0.036561
453.000000	0.036599
452.000000	0.036630
451.000000	0.036679
450.000000	0.036865
449.000000	0.036952
448.000000	0.036988
447.000000	0.037031
446.000000	0.037003
445.000000	0.037243
444.000000	0.037368
443.000000	0.037344
442.000000	0.037372
441.000000	0.037464
440.000000	0.037545
439.000000	0.037628
438.000000	0.037619
437.000000	0.037616
436.000000	0.037540
435.000000	0.037582
434.000000	0.037675
433.000000	0.037746
432.000000	0.037678
431.000000	0.037697
430.000000	0.037800
429.000000	0.037718
428.000000	0.037553
427.000000	0.037731
426.000000	0.037741
425.000000	0.037710
424.000000	0.037673
423.000000	0.037795
422.000000	0.037615
421.000000	0.037643
420.000000	0.037625
419.000000	0.037611
418.000000	0.037552
417.000000	0.037388
416.000000	0.037325
415.000000	0.037347
414.000000	0.037247
413.000000	0.037294
412.000000	0.037383
411.000000	0.037456
410.000000	0.037226
409.000000	0.037459
408.000000	0.037531
407.000000	0.037438
406.000000	0.037525
405.000000	0.037639
404.000000	0.037519
403.000000	0.037573
402.000000	0.037657
401.000000	0.037802
400.000000	0.037803
399.000000	0.037817
398.000000	0.037721
397.000000	0.038015
396.000000	0.037995
395.000000	0.038007
394.000000	0.038168
393.000000	0.038300
392.000000	0.037987
391.000000	0.038309
390.000000	0.038418
389.000000	0.038439
388.000000	0.038496
387.000000	0.038502
386.000000	0.038498
385.000000	0.038678
384.000000	0.038609
383.000000	0.038837
382.000000	0.038719
381.000000	0.038691
380.000000	0.038837
379.000000	0.039106
378.000000	0.038876
377.000000	0.038867
376.000000	0.038940
375.000000	0.039172
374.000000	0.039183
373.000000	0.039298
372.000000	0.039433
371.000000	0.039518
370.000000	0.039399
369.000000	0.039825
368.000000	0.039891
367.000000	0.039919
366.000000	0.040013
365.000000	0.040279
364.000000	0.040071
363.000000	0.040375
362.000000	0.040465
361.000000	0.040642
360.000000	0.040668
359.000000	0.040750
358.000000	0.040658
357.000000	0.040992
356.000000	0.040994
355.000000	0.041283
354.000000	0.041496
353.000000	0.041553
352.000000	0.041653
351.000000	0.041841
350.000000	0.041831
349.000000	0.041888
348.000000	0.042124
347.000000	0.042273
346.000000	0.042237
345.000000	0.042428
344.000000	0.042551
343.000000	0.042726
342.000000	0.042721
341.000000	0.042814
340.000000	0.042903
339.000000	0.043157
338.000000	0.043013
337.000000	0.043313
336.000000	0.043493
335.000000	0.043452
334.000000	0.043434
333.000000	0.043706
332.000000	0.043919
331.000000	0.043947
330.000000	0.043902
329.000000	0.044077
328.000000	0.044197
327.000000	0.044271
326.000000	0.044362
325.000000	0.044393
324.000000	0.044462
323.000000	0.044458
322.000000	0.044583
321.000000	0.044829
320.000000	0.044781
319.000000	0.045011
318.000000	0.045170
317.000000	0.045287
316.000000	0.045470
315.000000	0.045516
314.000000	0.045627
313.000000	0.045827
312.000000	0.046009
311.000000	0.046149
310.000000	0.046210
309.000000	0.046409
308.000000	0.046688
307.000000	0.046616
306.000000	0.046697
305.000000	0.046968
304.000000	0.047016
303.000000	0.047153
302.000000	0.047489
301.000000	0.047599
300.000000	0.047615
299.000000	0.047743
298.000000	0.047920
297.000000	0.048076
296.000000	0.048290
295.000000	0.048362
294.000000	0.048554
293.000000	0.048813
292.000000	0.048921
291.000000	0.049090
290.000000	0.049375
289.000000	0.049460
288.000000	0.049577
287.000000	0.049865
286.000000	0.050056
285.000000	0.050203
284.000000	0.050489
283.000000	0.050652
282.000000	0.050776
281.000000	0.050961
280.000000	0.051145
279.000000	0.051299
278.000000	0.051401
277.000000	0.051555
276.000000	0.051836
275.000000	0.051995
274.000000	0.052125
273.000000	0.052446
272.000000	0.052596
271.000000	0.052641
270.000000	0.052813
269.000000	0.053027
268.000000	0.053158
267.000000	0.053421
266.000000	0.053683
265.000000	0.053866
264.000000	0.053969
263.000000	0.054149
262.000000	0.054338
261.000000	0.054573
260.000000	0.054785
259.000000	0.055024
258.000000	0.055383
257.000000	0.055718
256.000000	0.055855
255.000000	0.056154
254.000000	0.056493
253.000000	0.056735
252.000000	0.057153
251.000000	0.057549
250.000000	0.057854
249.000000	0.058247
248.000000	0.058629
247.000000	0.059161
246.000000	0.059511
245.000000	0.059978
244.000000	0.060402
243.000000	0.061091
242.000000	0.061534
241.000000	0.062013
240.000000	0.062626
239.000000	0.063265
238.000000	0.063758
237.000000	0.064474
236.000000	0.065065
235.000000	0.065675
234.000000	0.066272
233.000000	0.066888
232.000000	0.067504
231.000000	0.068349
230.000000	0.069058
229.000000	0.069718
228.000000	0.070409
227.000000	0.071102
226.000000	0.071685
225.000000	0.072554
224.000000	0.073367
223.000000	0.074300
222.000000	0.075250
221.000000	0.076205
220.000000	0.077113
219.000000	0.078316
218.000000	0.079697
217.000000	0.081118
216.000000	0.082506
215.000000	0.084196
214.000000	0.085919
213.000000	0.087932
212.000000	0.090052
211.000000	0.092307
210.000000	0.094750
209.000000	0.097230
208.000000	0.099941
207.000000	0.103257
206.000000	0.106423
205.000000	0.109972
204.000000	0.113662
203.000000	0.117620
202.000000	0.122060
201.000000	0.126974
200.000000	0.132034
