PE UV       SUBTECH     SPECTRUM    ASCII       PEDS        4.00        
   -1
TV5-05B_1CM.Sample.Raw.asc
11/08/25
10:30:57.00
11/08/25
10:30:57.00
Hermanni Kaartokallio

200.000000
1
Lambda 650
650N8121101
PerkinElmer UV WinLab 6.0.2.0723 / 1.61.00 Lambda 650

0
0
2
0
0
UV/VIS
1
1
1
uv/vis/nir detector
0
0
0
0
Fix
 
0
0.24
0
0
0
 
 
 
0
 
0
319.2
0
Front
100
 
 
 
0
0
0
 
0
 
 
 
0
 
 
0
0
0
0
0
 
 
 
 
0
0
#HDR
-1
-1
#GR
nm
A
1.0
0.0
800.000000
-1.000000
601
8
2.953624
0.033703
#DATA
800.000000	0.041487
799.000000	0.041626
798.000000	0.041818
797.000000	0.041681
796.000000	0.041763
795.000000	0.041888
794.000000	0.042108
793.000000	0.041965
792.000000	0.042030
791.000000	0.042283
790.000000	0.042344
789.000000	0.042316
788.000000	0.042364
787.000000	0.042562
786.000000	0.042491
785.000000	0.042527
784.000000	0.042884
783.000000	0.042932
782.000000	0.042865
781.000000	0.042999
780.000000	0.043281
779.000000	0.043464
778.000000	0.043515
777.000000	0.043685
776.000000	0.043867
775.000000	0.043996
774.000000	0.043971
773.000000	0.044279
772.000000	0.044523
771.000000	0.044518
770.000000	0.044704
769.000000	0.044839
768.000000	0.044923
767.000000	0.044798
766.000000	0.044799
765.000000	0.044903
764.000000	0.044835
763.000000	0.044760
762.000000	0.044803
761.000000	0.044840
760.000000	0.044668
759.000000	0.044677
758.000000	0.044679
757.000000	0.044717
756.000000	0.044614
755.000000	0.044666
754.000000	0.044754
753.000000	0.044680
752.000000	0.044707
751.000000	0.044769
750.000000	0.044696
749.000000	0.044550
748.000000	0.044548
747.000000	0.044595
746.000000	0.044565
745.000000	0.044453
744.000000	0.044468
743.000000	0.044445
742.000000	0.044232
741.000000	0.044120
740.000000	0.043999
739.000000	0.043803
738.000000	0.043568
737.000000	0.043412
736.000000	0.043110
735.000000	0.042663
734.000000	0.042213
733.000000	0.041834
732.000000	0.041270
731.000000	0.040698
730.000000	0.040213
729.000000	0.039734
728.000000	0.039229
727.000000	0.038796
726.000000	0.038528
725.000000	0.038245
724.000000	0.037931
723.000000	0.037627
722.000000	0.037434
721.000000	0.037154
720.000000	0.036863
719.000000	0.036676
718.000000	0.036566
717.000000	0.036365
716.000000	0.036155
715.000000	0.036054
714.000000	0.035907
713.000000	0.035693
712.000000	0.035632
711.000000	0.035635
710.000000	0.035516
709.000000	0.035335
708.000000	0.035406
707.000000	0.035384
706.000000	0.035204
705.000000	0.035165
704.000000	0.035122
703.000000	0.034919
702.000000	0.034704
701.000000	0.034613
700.000000	0.034511
699.000000	0.034390
698.000000	0.034286
697.000000	0.034268
696.000000	0.034208
695.000000	0.034125
694.000000	0.034164
693.000000	0.034197
692.000000	0.034180
691.000000	0.034111
690.000000	0.034144
689.000000	0.034369
688.000000	0.034414
687.000000	0.034462
686.000000	0.034564
685.000000	0.034507
684.000000	0.034440
683.000000	0.034507
682.000000	0.034429
681.000000	0.034313
680.000000	0.034383
679.000000	0.034468
678.000000	0.034451
677.000000	0.034437
676.000000	0.034459
675.000000	0.034456
674.000000	0.034414
673.000000	0.034476
672.000000	0.034602
671.000000	0.034557
670.000000	0.034463
669.000000	0.034494
668.000000	0.034551
667.000000	0.034474
666.000000	0.034388
665.000000	0.034396
664.000000	0.034401
663.000000	0.034348
662.000000	0.034337
661.000000	0.034387
660.000000	0.034326
659.000000	0.034204
658.000000	0.034129
657.000000	0.034073
656.000000	0.033994
655.000000	0.033945
654.000000	0.033995
653.000000	0.033927
652.000000	0.033703
651.000000	0.033725
650.000000	0.033895
649.000000	0.033871
648.000000	0.033868
647.000000	0.033953
646.000000	0.033989
645.000000	0.033941
644.000000	0.034089
643.000000	0.034168
642.000000	0.034217
641.000000	0.034239
640.000000	0.034344
639.000000	0.034490
638.000000	0.034534
637.000000	0.034505
636.000000	0.034543
635.000000	0.034677
634.000000	0.034569
633.000000	0.034742
632.000000	0.034784
631.000000	0.034679
630.000000	0.034602
629.000000	0.034623
628.000000	0.034620
627.000000	0.034599
626.000000	0.034729
625.000000	0.034857
624.000000	0.034776
623.000000	0.034735
622.000000	0.034754
621.000000	0.034809
620.000000	0.034871
619.000000	0.034712
618.000000	0.034839
617.000000	0.034864
616.000000	0.034739
615.000000	0.034758
614.000000	0.034847
613.000000	0.034822
612.000000	0.034781
611.000000	0.034864
610.000000	0.034891
609.000000	0.034863
608.000000	0.034823
607.000000	0.035014
606.000000	0.035108
605.000000	0.034986
604.000000	0.034715
603.000000	0.034943
602.000000	0.034937
601.000000	0.034889
600.000000	0.034955
599.000000	0.035033
598.000000	0.034782
597.000000	0.034946
596.000000	0.034997
595.000000	0.035047
594.000000	0.034915
593.000000	0.035095
592.000000	0.035085
591.000000	0.035033
590.000000	0.035027
589.000000	0.035202
588.000000	0.035196
587.000000	0.035210
586.000000	0.035234
585.000000	0.035392
584.000000	0.035451
583.000000	0.035339
582.000000	0.035467
581.000000	0.035577
580.000000	0.035573
579.000000	0.035569
578.000000	0.035729
577.000000	0.035802
576.000000	0.035716
575.000000	0.035855
574.000000	0.035969
573.000000	0.035914
572.000000	0.036029
571.000000	0.036055
570.000000	0.036153
569.000000	0.036184
568.000000	0.036248
567.000000	0.036292
566.000000	0.036398
565.000000	0.036390
564.000000	0.036488
563.000000	0.036597
562.000000	0.036581
561.000000	0.036577
560.000000	0.036662
559.000000	0.036698
558.000000	0.036722
557.000000	0.036836
556.000000	0.036898
555.000000	0.036807
554.000000	0.036838
553.000000	0.037006
552.000000	0.037034
551.000000	0.036931
550.000000	0.037059
549.000000	0.037074
548.000000	0.036933
547.000000	0.036934
546.000000	0.037034
545.000000	0.037059
544.000000	0.036962
543.000000	0.036986
542.000000	0.037013
541.000000	0.036987
540.000000	0.036950
539.000000	0.037037
538.000000	0.037054
537.000000	0.037045
536.000000	0.037003
535.000000	0.036985
534.000000	0.036959
533.000000	0.036885
532.000000	0.036963
531.000000	0.036962
530.000000	0.036835
529.000000	0.036856
528.000000	0.036884
527.000000	0.036873
526.000000	0.036839
525.000000	0.036808
524.000000	0.036794
523.000000	0.036790
522.000000	0.036822
521.000000	0.036849
520.000000	0.036861
519.000000	0.036772
518.000000	0.036727
517.000000	0.036806
516.000000	0.036843
515.000000	0.036812
514.000000	0.036825
513.000000	0.036828
512.000000	0.036800
511.000000	0.036882
510.000000	0.036952
509.000000	0.036989
508.000000	0.036926
507.000000	0.036948
506.000000	0.037014
505.000000	0.037057
504.000000	0.037096
503.000000	0.037190
502.000000	0.037208
501.000000	0.037216
500.000000	0.037236
499.000000	0.037357
498.000000	0.037425
497.000000	0.037426
496.000000	0.037534
495.000000	0.037666
494.000000	0.037675
493.000000	0.037719
492.000000	0.037864
491.000000	0.037953
490.000000	0.037974
489.000000	0.038019
488.000000	0.038097
487.000000	0.038179
486.000000	0.038283
485.000000	0.038404
484.000000	0.038516
483.000000	0.038489
482.000000	0.038543
481.000000	0.038694
480.000000	0.038735
479.000000	0.038744
478.000000	0.038833
477.000000	0.038960
476.000000	0.038977
475.000000	0.039046
474.000000	0.039215
473.000000	0.039330
472.000000	0.039370
471.000000	0.039357
470.000000	0.039536
469.000000	0.039702
468.000000	0.039709
467.000000	0.039796
466.000000	0.039976
465.000000	0.040055
464.000000	0.040116
463.000000	0.040331
462.000000	0.040433
461.000000	0.040508
460.000000	0.040636
459.000000	0.040711
458.000000	0.040783
457.000000	0.040878
456.000000	0.041050
455.000000	0.041273
454.000000	0.041359
453.000000	0.041398
452.000000	0.041473
451.000000	0.041599
450.000000	0.041641
449.000000	0.041795
448.000000	0.041927
447.000000	0.041935
446.000000	0.042039
445.000000	0.042212
444.000000	0.042362
443.000000	0.042378
442.000000	0.042438
441.000000	0.042520
440.000000	0.042643
439.000000	0.042713
438.000000	0.042754
437.000000	0.042858
436.000000	0.042890
435.000000	0.042862
434.000000	0.043063
433.000000	0.043156
432.000000	0.043138
431.000000	0.043166
430.000000	0.043323
429.000000	0.043269
428.000000	0.043294
427.000000	0.043463
426.000000	0.043520
425.000000	0.043586
424.000000	0.043552
423.000000	0.043609
422.000000	0.043643
421.000000	0.043622
420.000000	0.043684
419.000000	0.043854
418.000000	0.043815
417.000000	0.043672
416.000000	0.043904
415.000000	0.044040
414.000000	0.044016
413.000000	0.044095
412.000000	0.044281
411.000000	0.044297
410.000000	0.044291
409.000000	0.044424
408.000000	0.044628
407.000000	0.044692
406.000000	0.044798
405.000000	0.044818
404.000000	0.045022
403.000000	0.045088
402.000000	0.045238
401.000000	0.045452
400.000000	0.045554
399.000000	0.045649
398.000000	0.045777
397.000000	0.046047
396.000000	0.046175
395.000000	0.046223
394.000000	0.046381
393.000000	0.046583
392.000000	0.046643
391.000000	0.046862
390.000000	0.047134
389.000000	0.047264
388.000000	0.047452
387.000000	0.047577
386.000000	0.047788
385.000000	0.047994
384.000000	0.048053
383.000000	0.048389
382.000000	0.048483
381.000000	0.048539
380.000000	0.048855
379.000000	0.049197
378.000000	0.049351
377.000000	0.049403
376.000000	0.049801
375.000000	0.050102
374.000000	0.050234
373.000000	0.050520
372.000000	0.050850
371.000000	0.051014
370.000000	0.051181
369.000000	0.051670
368.000000	0.052051
367.000000	0.052166
366.000000	0.052427
365.000000	0.052787
364.000000	0.053024
363.000000	0.053395
362.000000	0.053722
361.000000	0.054084
360.000000	0.054342
359.000000	0.054644
358.000000	0.054964
357.000000	0.055368
356.000000	0.055602
355.000000	0.056040
354.000000	0.056440
353.000000	0.056737
352.000000	0.057060
351.000000	0.057565
350.000000	0.057912
349.000000	0.058191
348.000000	0.058709
347.000000	0.059016
346.000000	0.059446
345.000000	0.059801
344.000000	0.060235
343.000000	0.060695
342.000000	0.060995
341.000000	0.061469
340.000000	0.061921
339.000000	0.062402
338.000000	0.062716
337.000000	0.063245
336.000000	0.063816
335.000000	0.064184
334.000000	0.064626
333.000000	0.065129
332.000000	0.065681
331.000000	0.066135
330.000000	0.066564
329.000000	0.067078
328.000000	0.067721
327.000000	0.068186
326.000000	0.068707
325.000000	0.069267
324.000000	0.069809
323.000000	0.070252
322.000000	0.070954
321.000000	0.071627
320.000000	0.072152
319.000000	0.072855
318.000000	0.073502
317.000000	0.074041
316.000000	0.074804
315.000000	0.075508
314.000000	0.076130
313.000000	0.076960
312.000000	0.077836
311.000000	0.078672
310.000000	0.079392
309.000000	0.080290
308.000000	0.081295
307.000000	0.082194
306.000000	0.083110
305.000000	0.084174
304.000000	0.085053
303.000000	0.086130
302.000000	0.087376
301.000000	0.088510
300.000000	0.089516
299.000000	0.090693
298.000000	0.091986
297.000000	0.093249
296.000000	0.094539
295.000000	0.095942
294.000000	0.097362
293.000000	0.098787
292.000000	0.100198
291.000000	0.101729
290.000000	0.103350
289.000000	0.104789
288.000000	0.106308
287.000000	0.107938
286.000000	0.109495
285.000000	0.111088
284.000000	0.112833
283.000000	0.114453
282.000000	0.116008
281.000000	0.117560
280.000000	0.119177
279.000000	0.120837
278.000000	0.122349
277.000000	0.123921
276.000000	0.125627
275.000000	0.127297
274.000000	0.128983
273.000000	0.130709
272.000000	0.132232
271.000000	0.133725
270.000000	0.135354
269.000000	0.136912
268.000000	0.138479
267.000000	0.140122
266.000000	0.141648
265.000000	0.143072
264.000000	0.144459
263.000000	0.145848
262.000000	0.147284
261.000000	0.148662
260.000000	0.149979
259.000000	0.151301
258.000000	0.152718
257.000000	0.153971
256.000000	0.155255
255.000000	0.156494
254.000000	0.157812
253.000000	0.159137
252.000000	0.160389
251.000000	0.161754
250.000000	0.163168
249.000000	0.164601
248.000000	0.166138
247.000000	0.167807
246.000000	0.169527
245.000000	0.171338
244.000000	0.173362
243.000000	0.175520
242.000000	0.177596
241.000000	0.179971
240.000000	0.182478
239.000000	0.185087
238.000000	0.187866
237.000000	0.190709
236.000000	0.193747
235.000000	0.196937
234.000000	0.200209
233.000000	0.203633
232.000000	0.207193
231.000000	0.210975
230.000000	0.214577
229.000000	0.218339
228.000000	0.222259
227.000000	0.226325
226.000000	0.230659
225.000000	0.235453
224.000000	0.240650
223.000000	0.246652
222.000000	0.253697
221.000000	0.261582
220.000000	0.271288
219.000000	0.282939
218.000000	0.297088
217.000000	0.314611
216.000000	0.336329
215.000000	0.363283
214.000000	0.396603
213.000000	0.437863
212.000000	0.488087
211.000000	0.549045
210.000000	0.622136
209.000000	0.708647
208.000000	0.811431
207.000000	0.934151
206.000000	1.079429
205.000000	1.252486
204.000000	1.461247
203.000000	1.715592
202.000000	2.031839
201.000000	2.429666
200.000000	2.953624
