PE UV       SUBTECH     SPECTRUM    ASCII       PEDS        4.00        
   -1
TV5-03B_1CM.Sample.Raw.asc
11/08/25
11:39:57.00
11/08/25
11:39:57.00
Hermanni Kaartokallio

200.000000
1
Lambda 650
650N8121101
PerkinElmer UV WinLab 6.0.2.0723 / 1.61.00 Lambda 650

0
0
2
0
0
UV/VIS
1
1
1
uv/vis/nir detector
0
0
0
0
Fix
 
0
0.24
0
0
0
 
 
 
0
 
0
319.2
0
Front
100
 
 
 
0
0
0
 
0
 
 
 
0
 
 
0
0
0
0
0
 
 
 
 
0
0
#HDR
-1
-1
#GR
nm
A
1.0
0.0
800.000000
-1.000000
601
8
2.890540
0.030874
#DATA
800.000000	0.038928
799.000000	0.039041
798.000000	0.039368
797.000000	0.039314
796.000000	0.039250
795.000000	0.039349
794.000000	0.039573
793.000000	0.039437
792.000000	0.039663
791.000000	0.039773
790.000000	0.039911
789.000000	0.039851
788.000000	0.039972
787.000000	0.040084
786.000000	0.040136
785.000000	0.040291
784.000000	0.040607
783.000000	0.040696
782.000000	0.040755
781.000000	0.040770
780.000000	0.041015
779.000000	0.041235
778.000000	0.041192
777.000000	0.041340
776.000000	0.041502
775.000000	0.041826
774.000000	0.041671
773.000000	0.041775
772.000000	0.041868
771.000000	0.041866
770.000000	0.041928
769.000000	0.042036
768.000000	0.042163
767.000000	0.042168
766.000000	0.042027
765.000000	0.042132
764.000000	0.042053
763.000000	0.041975
762.000000	0.041954
761.000000	0.042084
760.000000	0.041850
759.000000	0.041781
758.000000	0.041740
757.000000	0.041753
756.000000	0.041622
755.000000	0.041622
754.000000	0.041706
753.000000	0.041588
752.000000	0.041557
751.000000	0.041551
750.000000	0.041515
749.000000	0.041552
748.000000	0.041545
747.000000	0.041533
746.000000	0.041593
745.000000	0.041544
744.000000	0.041568
743.000000	0.041643
742.000000	0.041438
741.000000	0.041336
740.000000	0.041293
739.000000	0.041177
738.000000	0.041000
737.000000	0.040877
736.000000	0.040543
735.000000	0.040136
734.000000	0.039705
733.000000	0.039298
732.000000	0.038805
731.000000	0.038310
730.000000	0.037785
729.000000	0.037334
728.000000	0.036848
727.000000	0.036383
726.000000	0.036070
725.000000	0.035736
724.000000	0.035391
723.000000	0.035075
722.000000	0.034834
721.000000	0.034557
720.000000	0.034249
719.000000	0.034017
718.000000	0.033817
717.000000	0.033618
716.000000	0.033449
715.000000	0.033299
714.000000	0.033101
713.000000	0.032894
712.000000	0.032762
711.000000	0.032700
710.000000	0.032631
709.000000	0.032447
708.000000	0.032407
707.000000	0.032421
706.000000	0.032243
705.000000	0.032102
704.000000	0.031993
703.000000	0.031833
702.000000	0.031639
701.000000	0.031511
700.000000	0.031410
699.000000	0.031288
698.000000	0.031181
697.000000	0.031121
696.000000	0.031049
695.000000	0.030971
694.000000	0.030944
693.000000	0.030940
692.000000	0.030919
691.000000	0.030874
690.000000	0.030898
689.000000	0.031016
688.000000	0.030974
687.000000	0.030944
686.000000	0.031026
685.000000	0.030977
684.000000	0.030941
683.000000	0.031083
682.000000	0.031126
681.000000	0.031089
680.000000	0.031118
679.000000	0.031166
678.000000	0.031203
677.000000	0.031208
676.000000	0.031237
675.000000	0.031267
674.000000	0.031295
673.000000	0.031301
672.000000	0.031347
671.000000	0.031365
670.000000	0.031297
669.000000	0.031352
668.000000	0.031420
667.000000	0.031391
666.000000	0.031271
665.000000	0.031180
664.000000	0.031207
663.000000	0.031251
662.000000	0.031215
661.000000	0.031195
660.000000	0.031177
659.000000	0.031099
658.000000	0.031047
657.000000	0.031053
656.000000	0.031020
655.000000	0.031001
654.000000	0.031007
653.000000	0.030961
652.000000	0.030916
651.000000	0.030951
650.000000	0.031059
649.000000	0.031129
648.000000	0.031137
647.000000	0.031103
646.000000	0.031175
645.000000	0.031242
644.000000	0.031394
643.000000	0.031388
642.000000	0.031460
641.000000	0.031522
640.000000	0.031629
639.000000	0.031744
638.000000	0.031739
637.000000	0.031716
636.000000	0.031698
635.000000	0.031768
634.000000	0.031806
633.000000	0.031945
632.000000	0.031880
631.000000	0.031864
630.000000	0.031827
629.000000	0.031801
628.000000	0.031834
627.000000	0.031729
626.000000	0.031737
625.000000	0.031711
624.000000	0.031759
623.000000	0.031676
622.000000	0.031657
621.000000	0.031777
620.000000	0.031703
619.000000	0.031576
618.000000	0.031565
617.000000	0.031619
616.000000	0.031662
615.000000	0.031563
614.000000	0.031631
613.000000	0.031596
612.000000	0.031619
611.000000	0.031634
610.000000	0.031718
609.000000	0.031783
608.000000	0.031802
607.000000	0.031978
606.000000	0.032026
605.000000	0.032261
604.000000	0.032099
603.000000	0.031956
602.000000	0.032174
601.000000	0.032110
600.000000	0.032157
599.000000	0.032262
598.000000	0.032252
597.000000	0.032177
596.000000	0.032255
595.000000	0.032376
594.000000	0.032301
593.000000	0.032468
592.000000	0.032392
591.000000	0.032534
590.000000	0.032292
589.000000	0.032486
588.000000	0.032531
587.000000	0.032592
586.000000	0.032707
585.000000	0.032693
584.000000	0.032733
583.000000	0.032783
582.000000	0.032845
581.000000	0.033033
580.000000	0.033124
579.000000	0.032983
578.000000	0.032928
577.000000	0.033153
576.000000	0.033167
575.000000	0.033309
574.000000	0.033422
573.000000	0.033281
572.000000	0.033351
571.000000	0.033458
570.000000	0.033538
569.000000	0.033658
568.000000	0.033687
567.000000	0.033621
566.000000	0.033680
565.000000	0.033754
564.000000	0.033866
563.000000	0.033895
562.000000	0.034056
561.000000	0.033943
560.000000	0.033971
559.000000	0.034052
558.000000	0.034073
557.000000	0.034022
556.000000	0.034138
555.000000	0.034136
554.000000	0.034103
553.000000	0.034217
552.000000	0.034324
551.000000	0.034233
550.000000	0.034348
549.000000	0.034326
548.000000	0.034206
547.000000	0.034207
546.000000	0.034277
545.000000	0.034302
544.000000	0.034266
543.000000	0.034244
542.000000	0.034255
541.000000	0.034199
540.000000	0.034204
539.000000	0.034201
538.000000	0.034154
537.000000	0.034142
536.000000	0.034109
535.000000	0.034203
534.000000	0.034135
533.000000	0.034071
532.000000	0.034094
531.000000	0.034015
530.000000	0.033974
529.000000	0.034016
528.000000	0.033876
527.000000	0.033917
526.000000	0.033967
525.000000	0.033991
524.000000	0.033929
523.000000	0.033903
522.000000	0.033930
521.000000	0.033883
520.000000	0.033867
519.000000	0.033844
518.000000	0.033860
517.000000	0.033894
516.000000	0.033902
515.000000	0.033924
514.000000	0.033878
513.000000	0.033909
512.000000	0.034024
511.000000	0.034100
510.000000	0.034007
509.000000	0.034037
508.000000	0.034070
507.000000	0.034110
506.000000	0.034142
505.000000	0.034202
504.000000	0.034298
503.000000	0.034334
502.000000	0.034329
501.000000	0.034371
500.000000	0.034433
499.000000	0.034513
498.000000	0.034559
497.000000	0.034612
496.000000	0.034702
495.000000	0.034763
494.000000	0.034844
493.000000	0.034960
492.000000	0.035017
491.000000	0.035060
490.000000	0.035187
489.000000	0.035307
488.000000	0.035386
487.000000	0.035540
486.000000	0.035699
485.000000	0.035832
484.000000	0.035896
483.000000	0.035946
482.000000	0.036090
481.000000	0.036140
480.000000	0.036092
479.000000	0.036137
478.000000	0.036193
477.000000	0.036293
476.000000	0.036412
475.000000	0.036478
474.000000	0.036478
473.000000	0.036610
472.000000	0.036729
471.000000	0.036727
470.000000	0.036886
469.000000	0.037009
468.000000	0.037062
467.000000	0.037109
466.000000	0.037256
465.000000	0.037404
464.000000	0.037524
463.000000	0.037644
462.000000	0.037745
461.000000	0.037846
460.000000	0.038018
459.000000	0.038085
458.000000	0.038145
457.000000	0.038255
456.000000	0.038376
455.000000	0.038541
454.000000	0.038640
453.000000	0.038696
452.000000	0.038813
451.000000	0.038889
450.000000	0.038895
449.000000	0.039069
448.000000	0.039187
447.000000	0.039248
446.000000	0.039471
445.000000	0.039559
444.000000	0.039588
443.000000	0.039710
442.000000	0.039795
441.000000	0.039808
440.000000	0.039928
439.000000	0.040052
438.000000	0.040094
437.000000	0.040156
436.000000	0.040224
435.000000	0.040294
434.000000	0.040468
433.000000	0.040469
432.000000	0.040470
431.000000	0.040500
430.000000	0.040571
429.000000	0.040561
428.000000	0.040684
427.000000	0.040730
426.000000	0.040753
425.000000	0.040854
424.000000	0.040936
423.000000	0.040969
422.000000	0.040997
421.000000	0.040926
420.000000	0.041063
419.000000	0.041161
418.000000	0.041016
417.000000	0.041008
416.000000	0.041197
415.000000	0.041201
414.000000	0.041271
413.000000	0.041379
412.000000	0.041460
411.000000	0.041589
410.000000	0.041768
409.000000	0.041790
408.000000	0.041785
407.000000	0.042012
406.000000	0.042202
405.000000	0.042224
404.000000	0.042271
403.000000	0.042429
402.000000	0.042594
401.000000	0.042728
400.000000	0.042941
399.000000	0.043029
398.000000	0.043243
397.000000	0.043277
396.000000	0.043422
395.000000	0.043613
394.000000	0.043758
393.000000	0.043860
392.000000	0.044046
391.000000	0.044241
390.000000	0.044406
389.000000	0.044631
388.000000	0.044823
387.000000	0.044863
386.000000	0.045095
385.000000	0.045306
384.000000	0.045518
383.000000	0.045889
382.000000	0.045746
381.000000	0.045932
380.000000	0.046301
379.000000	0.046455
378.000000	0.046562
377.000000	0.046653
376.000000	0.047059
375.000000	0.047226
374.000000	0.047464
373.000000	0.047872
372.000000	0.048059
371.000000	0.048282
370.000000	0.048636
369.000000	0.048926
368.000000	0.049073
367.000000	0.049489
366.000000	0.049766
365.000000	0.050013
364.000000	0.050255
363.000000	0.050781
362.000000	0.050979
361.000000	0.051380
360.000000	0.051640
359.000000	0.051985
358.000000	0.052209
357.000000	0.052566
356.000000	0.052899
355.000000	0.053381
354.000000	0.053749
353.000000	0.054056
352.000000	0.054514
351.000000	0.054830
350.000000	0.055107
349.000000	0.055546
348.000000	0.056070
347.000000	0.056342
346.000000	0.056770
345.000000	0.057087
344.000000	0.057550
343.000000	0.057909
342.000000	0.058337
341.000000	0.058750
340.000000	0.059161
339.000000	0.059620
338.000000	0.060063
337.000000	0.060573
336.000000	0.060973
335.000000	0.061340
334.000000	0.061945
333.000000	0.062474
332.000000	0.062937
331.000000	0.063464
330.000000	0.063901
329.000000	0.064330
328.000000	0.064976
327.000000	0.065538
326.000000	0.066070
325.000000	0.066495
324.000000	0.067089
323.000000	0.067728
322.000000	0.068312
321.000000	0.068816
320.000000	0.069534
319.000000	0.070246
318.000000	0.070835
317.000000	0.071374
316.000000	0.071980
315.000000	0.072697
314.000000	0.073424
313.000000	0.074215
312.000000	0.075036
311.000000	0.075867
310.000000	0.076810
309.000000	0.077634
308.000000	0.078441
307.000000	0.079404
306.000000	0.080317
305.000000	0.081301
304.000000	0.082271
303.000000	0.083415
302.000000	0.084612
301.000000	0.085744
300.000000	0.086839
299.000000	0.088033
298.000000	0.089240
297.000000	0.090520
296.000000	0.091892
295.000000	0.093319
294.000000	0.094576
293.000000	0.095983
292.000000	0.097521
291.000000	0.099003
290.000000	0.100491
289.000000	0.102106
288.000000	0.103679
287.000000	0.105210
286.000000	0.106825
285.000000	0.108493
284.000000	0.110170
283.000000	0.111771
282.000000	0.113391
281.000000	0.115001
280.000000	0.116592
279.000000	0.118118
278.000000	0.119699
277.000000	0.121404
276.000000	0.123155
275.000000	0.124887
274.000000	0.126679
273.000000	0.128352
272.000000	0.129854
271.000000	0.131529
270.000000	0.133218
269.000000	0.134757
268.000000	0.136365
267.000000	0.138022
266.000000	0.139587
265.000000	0.141004
264.000000	0.142474
263.000000	0.144003
262.000000	0.145454
261.000000	0.146850
260.000000	0.148252
259.000000	0.149678
258.000000	0.151043
257.000000	0.152361
256.000000	0.153831
255.000000	0.155051
254.000000	0.156333
253.000000	0.157658
252.000000	0.159006
251.000000	0.160410
250.000000	0.161806
249.000000	0.163266
248.000000	0.164831
247.000000	0.166462
246.000000	0.168033
245.000000	0.169989
244.000000	0.172033
243.000000	0.173994
242.000000	0.176012
241.000000	0.178402
240.000000	0.180738
239.000000	0.183236
238.000000	0.185939
237.000000	0.188765
236.000000	0.191595
235.000000	0.194691
234.000000	0.197890
233.000000	0.201022
232.000000	0.204451
231.000000	0.208102
230.000000	0.211624
229.000000	0.215299
228.000000	0.219137
227.000000	0.223321
226.000000	0.227546
225.000000	0.232368
224.000000	0.237789
223.000000	0.243895
222.000000	0.250741
221.000000	0.258792
220.000000	0.268604
219.000000	0.280285
218.000000	0.294468
217.000000	0.312032
216.000000	0.333488
215.000000	0.360267
214.000000	0.392727
213.000000	0.433381
212.000000	0.482567
211.000000	0.541857
210.000000	0.612744
209.000000	0.696768
208.000000	0.796307
207.000000	0.914527
206.000000	1.055578
205.000000	1.223657
204.000000	1.426558
203.000000	1.675252
202.000000	1.984299
201.000000	2.377470
200.000000	2.890540
