PE UV       SUBTECH     SPECTRUM    ASCII       PEDS        4.00        
   -1
TV5-000_1CM.Sample.Raw.asc
11/08/25
11:11:26.00
11/08/25
11:11:26.00
Hermanni Kaartokallio

200.000000
1
Lambda 650
650N8121101
PerkinElmer UV WinLab 6.0.2.0723 / 1.61.00 Lambda 650

0
0
2
0
0
UV/VIS
1
1
1
uv/vis/nir detector
0
0
0
0
Fix
 
0
0.24
0
0
0
 
 
 
0
 
0
319.2
0
Front
100
 
 
 
0
0
0
 
0
 
 
 
0
 
 
0
0
0
0
0
 
 
 
 
0
0
#HDR
-1
-1
#GR
nm
A
1.0
0.0
800.000000
-1.000000
601
8
0.682516
0.032555
#DATA
800.000000	0.039905
799.000000	0.040036
798.000000	0.040175
797.000000	0.040197
796.000000	0.040178
795.000000	0.040199
794.000000	0.040452
793.000000	0.040423
792.000000	0.040420
791.000000	0.040535
790.000000	0.040631
789.000000	0.040640
788.000000	0.040748
787.000000	0.040852
786.000000	0.040847
785.000000	0.040937
784.000000	0.041285
783.000000	0.041386
782.000000	0.041475
781.000000	0.041468
780.000000	0.041607
779.000000	0.041847
778.000000	0.041996
777.000000	0.042060
776.000000	0.042310
775.000000	0.042504
774.000000	0.042487
773.000000	0.042608
772.000000	0.042782
771.000000	0.042974
770.000000	0.043132
769.000000	0.043079
768.000000	0.043184
767.000000	0.043169
766.000000	0.043135
765.000000	0.043280
764.000000	0.043141
763.000000	0.043137
762.000000	0.043173
761.000000	0.043180
760.000000	0.043068
759.000000	0.043052
758.000000	0.042922
757.000000	0.043035
756.000000	0.043031
755.000000	0.042944
754.000000	0.043052
753.000000	0.042995
752.000000	0.043008
751.000000	0.042969
750.000000	0.042960
749.000000	0.042991
748.000000	0.042935
747.000000	0.042926
746.000000	0.042979
745.000000	0.042923
744.000000	0.042810
743.000000	0.042783
742.000000	0.042755
741.000000	0.042721
740.000000	0.042572
739.000000	0.042478
738.000000	0.042293
737.000000	0.042070
736.000000	0.041785
735.000000	0.041358
734.000000	0.040969
733.000000	0.040579
732.000000	0.040108
731.000000	0.039585
730.000000	0.039056
729.000000	0.038552
728.000000	0.038066
727.000000	0.037693
726.000000	0.037306
725.000000	0.037038
724.000000	0.036775
723.000000	0.036466
722.000000	0.036203
721.000000	0.035884
720.000000	0.035590
719.000000	0.035396
718.000000	0.035272
717.000000	0.035149
716.000000	0.034977
715.000000	0.034807
714.000000	0.034686
713.000000	0.034553
712.000000	0.034427
711.000000	0.034356
710.000000	0.034293
709.000000	0.034143
708.000000	0.034134
707.000000	0.034127
706.000000	0.033989
705.000000	0.033883
704.000000	0.033796
703.000000	0.033668
702.000000	0.033467
701.000000	0.033355
700.000000	0.033272
699.000000	0.033198
698.000000	0.033089
697.000000	0.032949
696.000000	0.032849
695.000000	0.032817
694.000000	0.032803
693.000000	0.032730
692.000000	0.032670
691.000000	0.032614
690.000000	0.032591
689.000000	0.032659
688.000000	0.032617
687.000000	0.032555
686.000000	0.032659
685.000000	0.032716
684.000000	0.032678
683.000000	0.032701
682.000000	0.032726
681.000000	0.032697
680.000000	0.032761
679.000000	0.032852
678.000000	0.032840
677.000000	0.032865
676.000000	0.032883
675.000000	0.032846
674.000000	0.032853
673.000000	0.032919
672.000000	0.033046
671.000000	0.033052
670.000000	0.032992
669.000000	0.033036
668.000000	0.033065
667.000000	0.033048
666.000000	0.032992
665.000000	0.032910
664.000000	0.032921
663.000000	0.032954
662.000000	0.032964
661.000000	0.032952
660.000000	0.032915
659.000000	0.032871
658.000000	0.032782
657.000000	0.032815
656.000000	0.032819
655.000000	0.032802
654.000000	0.032839
653.000000	0.032788
652.000000	0.032773
651.000000	0.032849
650.000000	0.032931
649.000000	0.032987
648.000000	0.033029
647.000000	0.033000
646.000000	0.033050
645.000000	0.033155
644.000000	0.033332
643.000000	0.033313
642.000000	0.033396
641.000000	0.033531
640.000000	0.033583
639.000000	0.033622
638.000000	0.033713
637.000000	0.033719
636.000000	0.033720
635.000000	0.033851
634.000000	0.033811
633.000000	0.033831
632.000000	0.033884
631.000000	0.033916
630.000000	0.033959
629.000000	0.033900
628.000000	0.033893
627.000000	0.033903
626.000000	0.033902
625.000000	0.033873
624.000000	0.033824
623.000000	0.033802
622.000000	0.033776
621.000000	0.033796
620.000000	0.033899
619.000000	0.033849
618.000000	0.033860
617.000000	0.033860
616.000000	0.033798
615.000000	0.033880
614.000000	0.033884
613.000000	0.033846
612.000000	0.033855
611.000000	0.033941
610.000000	0.033986
609.000000	0.033970
608.000000	0.034042
607.000000	0.034178
606.000000	0.034201
605.000000	0.034331
604.000000	0.034177
603.000000	0.034187
602.000000	0.034287
601.000000	0.034356
600.000000	0.034368
599.000000	0.034528
598.000000	0.034413
597.000000	0.034538
596.000000	0.034598
595.000000	0.034609
594.000000	0.034589
593.000000	0.034673
592.000000	0.034645
591.000000	0.034744
590.000000	0.034712
589.000000	0.034823
588.000000	0.034814
587.000000	0.034930
586.000000	0.034989
585.000000	0.035015
584.000000	0.035142
583.000000	0.035177
582.000000	0.035233
581.000000	0.035270
580.000000	0.035405
579.000000	0.035387
578.000000	0.035488
577.000000	0.035629
576.000000	0.035631
575.000000	0.035731
574.000000	0.035770
573.000000	0.035706
572.000000	0.035887
571.000000	0.035987
570.000000	0.036009
569.000000	0.036108
568.000000	0.036186
567.000000	0.036183
566.000000	0.036273
565.000000	0.036373
564.000000	0.036484
563.000000	0.036519
562.000000	0.036614
561.000000	0.036591
560.000000	0.036599
559.000000	0.036764
558.000000	0.036865
557.000000	0.036856
556.000000	0.036942
555.000000	0.036942
554.000000	0.036978
553.000000	0.037109
552.000000	0.037164
551.000000	0.037151
550.000000	0.037243
549.000000	0.037210
548.000000	0.037186
547.000000	0.037272
546.000000	0.037340
545.000000	0.037313
544.000000	0.037313
543.000000	0.037352
542.000000	0.037310
541.000000	0.037304
540.000000	0.037363
539.000000	0.037379
538.000000	0.037396
537.000000	0.037397
536.000000	0.037356
535.000000	0.037353
534.000000	0.037402
533.000000	0.037395
532.000000	0.037407
531.000000	0.037425
530.000000	0.037385
529.000000	0.037456
528.000000	0.037417
527.000000	0.037430
526.000000	0.037475
525.000000	0.037506
524.000000	0.037459
523.000000	0.037503
522.000000	0.037595
521.000000	0.037570
520.000000	0.037543
519.000000	0.037545
518.000000	0.037600
517.000000	0.037662
516.000000	0.037702
515.000000	0.037761
514.000000	0.037798
513.000000	0.037817
512.000000	0.037877
511.000000	0.037974
510.000000	0.038023
509.000000	0.038096
508.000000	0.038140
507.000000	0.038214
506.000000	0.038258
505.000000	0.038320
504.000000	0.038445
503.000000	0.038521
502.000000	0.038555
501.000000	0.038619
500.000000	0.038701
499.000000	0.038824
498.000000	0.038989
497.000000	0.039099
496.000000	0.039171
495.000000	0.039251
494.000000	0.039368
493.000000	0.039514
492.000000	0.039627
491.000000	0.039737
490.000000	0.039868
489.000000	0.039966
488.000000	0.040039
487.000000	0.040171
486.000000	0.040396
485.000000	0.040577
484.000000	0.040637
483.000000	0.040700
482.000000	0.040856
481.000000	0.040977
480.000000	0.041081
479.000000	0.041214
478.000000	0.041325
477.000000	0.041422
476.000000	0.041520
475.000000	0.041660
474.000000	0.041821
473.000000	0.041987
472.000000	0.042169
471.000000	0.042249
470.000000	0.042385
469.000000	0.042597
468.000000	0.042762
467.000000	0.042865
466.000000	0.043037
465.000000	0.043218
464.000000	0.043402
463.000000	0.043640
462.000000	0.043787
461.000000	0.043987
460.000000	0.044193
459.000000	0.044328
458.000000	0.044522
457.000000	0.044720
456.000000	0.044936
455.000000	0.045127
454.000000	0.045289
453.000000	0.045443
452.000000	0.045602
451.000000	0.045774
450.000000	0.045905
449.000000	0.046121
448.000000	0.046303
447.000000	0.046376
446.000000	0.046651
445.000000	0.047026
444.000000	0.047164
443.000000	0.047309
442.000000	0.047503
441.000000	0.047578
440.000000	0.047749
439.000000	0.048016
438.000000	0.048228
437.000000	0.048367
436.000000	0.048502
435.000000	0.048628
434.000000	0.048885
433.000000	0.049071
432.000000	0.049188
431.000000	0.049415
430.000000	0.049591
429.000000	0.049706
428.000000	0.049877
427.000000	0.050105
426.000000	0.050215
425.000000	0.050512
424.000000	0.050735
423.000000	0.050825
422.000000	0.050998
421.000000	0.051267
420.000000	0.051517
419.000000	0.051636
418.000000	0.051780
417.000000	0.051959
416.000000	0.052253
415.000000	0.052471
414.000000	0.052761
413.000000	0.053033
412.000000	0.053253
411.000000	0.053550
410.000000	0.053785
409.000000	0.054084
408.000000	0.054387
407.000000	0.054696
406.000000	0.055076
405.000000	0.055295
404.000000	0.055608
403.000000	0.055927
402.000000	0.056364
401.000000	0.056728
400.000000	0.057042
399.000000	0.057431
398.000000	0.057803
397.000000	0.058146
396.000000	0.058611
395.000000	0.059073
394.000000	0.059379
393.000000	0.059768
392.000000	0.060176
391.000000	0.060738
390.000000	0.061192
389.000000	0.061588
388.000000	0.062124
387.000000	0.062498
386.000000	0.062944
385.000000	0.063589
384.000000	0.064074
383.000000	0.064543
382.000000	0.064977
381.000000	0.065291
380.000000	0.066091
379.000000	0.066586
378.000000	0.067301
377.000000	0.067728
376.000000	0.068341
375.000000	0.069014
374.000000	0.069650
373.000000	0.070279
372.000000	0.070944
371.000000	0.071501
370.000000	0.072254
369.000000	0.072998
368.000000	0.073670
367.000000	0.074402
366.000000	0.075091
365.000000	0.075758
364.000000	0.076462
363.000000	0.077333
362.000000	0.078021
361.000000	0.078860
360.000000	0.079704
359.000000	0.080452
358.000000	0.081123
357.000000	0.082024
356.000000	0.082905
355.000000	0.083805
354.000000	0.084633
353.000000	0.085515
352.000000	0.086401
351.000000	0.087335
350.000000	0.088225
349.000000	0.089167
348.000000	0.090183
347.000000	0.090990
346.000000	0.091949
345.000000	0.093051
344.000000	0.094097
343.000000	0.095108
342.000000	0.095983
341.000000	0.097039
340.000000	0.098083
339.000000	0.099112
338.000000	0.100161
337.000000	0.101421
336.000000	0.102514
335.000000	0.103470
334.000000	0.104759
333.000000	0.105960
332.000000	0.107080
331.000000	0.108333
330.000000	0.109510
329.000000	0.110745
328.000000	0.112050
327.000000	0.113300
326.000000	0.114614
325.000000	0.115825
324.000000	0.117257
323.000000	0.118592
322.000000	0.119915
321.000000	0.121386
320.000000	0.122912
319.000000	0.124462
318.000000	0.125903
317.000000	0.127280
316.000000	0.128799
315.000000	0.130330
314.000000	0.132014
313.000000	0.133782
312.000000	0.135459
311.000000	0.137289
310.000000	0.139079
309.000000	0.140802
308.000000	0.142687
307.000000	0.144686
306.000000	0.146605
305.000000	0.148600
304.000000	0.150642
303.000000	0.152849
302.000000	0.155210
301.000000	0.157391
300.000000	0.159665
299.000000	0.162009
298.000000	0.164333
297.000000	0.166792
296.000000	0.169426
295.000000	0.172072
294.000000	0.174665
293.000000	0.177477
292.000000	0.180370
291.000000	0.183181
290.000000	0.186150
289.000000	0.189263
288.000000	0.192277
287.000000	0.195254
286.000000	0.198293
285.000000	0.201431
284.000000	0.204525
283.000000	0.207541
282.000000	0.210655
281.000000	0.213723
280.000000	0.216628
279.000000	0.219600
278.000000	0.222675
277.000000	0.225708
276.000000	0.228739
275.000000	0.231751
274.000000	0.234878
273.000000	0.237977
272.000000	0.240867
271.000000	0.243779
270.000000	0.246771
269.000000	0.249538
268.000000	0.252280
267.000000	0.255200
266.000000	0.257880
265.000000	0.260356
264.000000	0.262878
263.000000	0.265360
262.000000	0.267689
261.000000	0.270018
260.000000	0.272380
259.000000	0.274643
258.000000	0.276863
257.000000	0.279053
256.000000	0.281381
255.000000	0.283588
254.000000	0.285855
253.000000	0.288176
252.000000	0.290610
251.000000	0.292898
250.000000	0.295406
249.000000	0.298125
248.000000	0.300920
247.000000	0.303866
246.000000	0.306968
245.000000	0.310400
244.000000	0.313995
243.000000	0.317702
242.000000	0.321650
241.000000	0.325921
240.000000	0.330167
239.000000	0.334663
238.000000	0.339424
237.000000	0.344265
236.000000	0.349245
235.000000	0.354502
234.000000	0.359787
233.000000	0.365023
232.000000	0.370530
231.000000	0.376529
230.000000	0.382271
229.000000	0.388195
228.000000	0.393920
227.000000	0.399981
226.000000	0.405966
225.000000	0.412266
224.000000	0.418752
223.000000	0.425621
222.000000	0.432544
221.000000	0.439514
220.000000	0.447084
219.000000	0.454857
218.000000	0.462888
217.000000	0.471364
216.000000	0.480028
215.000000	0.489213
214.000000	0.498991
213.000000	0.508965
212.000000	0.519370
211.000000	0.530199
210.000000	0.541521
209.000000	0.552875
208.000000	0.564848
207.000000	0.577237
206.000000	0.590446
205.000000	0.603746
204.000000	0.617624
203.000000	0.632196
202.000000	0.647551
201.000000	0.664609
200.000000	0.682516
