PE UV       SUBTECH     SPECTRUM    ASCII       PEDS        4.00        
   -1
TV5-02A_1CM.Sample.Raw.asc
11/08/25
11:26:00.00
11/08/25
11:26:00.00
Hermanni Kaartokallio

200.000000
1
Lambda 650
650N8121101
PerkinElmer UV WinLab 6.0.2.0723 / 1.61.00 Lambda 650

0
0
2
0
0
UV/VIS
1
1
1
uv/vis/nir detector
0
0
0
0
Fix
 
0
0.24
0
0
0
 
 
 
0
 
0
319.2
0
Front
100
 
 
 
0
0
0
 
0
 
 
 
0
 
 
0
0
0
0
0
 
 
 
 
0
0
#HDR
-1
-1
#GR
nm
A
1.0
0.0
800.000000
-1.000000
601
8
1.599669
0.031161
#DATA
800.000000	0.039125
799.000000	0.039167
798.000000	0.039493
797.000000	0.039516
796.000000	0.039347
795.000000	0.039395
794.000000	0.039546
793.000000	0.039466
792.000000	0.039470
791.000000	0.039646
790.000000	0.039750
789.000000	0.039651
788.000000	0.039722
787.000000	0.039893
786.000000	0.039853
785.000000	0.039858
784.000000	0.040138
783.000000	0.040248
782.000000	0.040319
781.000000	0.040260
780.000000	0.040557
779.000000	0.040686
778.000000	0.040735
777.000000	0.040974
776.000000	0.041116
775.000000	0.041300
774.000000	0.041174
773.000000	0.041399
772.000000	0.041704
771.000000	0.041696
770.000000	0.041882
769.000000	0.041941
768.000000	0.041982
767.000000	0.041980
766.000000	0.041980
765.000000	0.042116
764.000000	0.041979
763.000000	0.041921
762.000000	0.041932
761.000000	0.041960
760.000000	0.041811
759.000000	0.041788
758.000000	0.041733
757.000000	0.041766
756.000000	0.041622
755.000000	0.041635
754.000000	0.041766
753.000000	0.041655
752.000000	0.041636
751.000000	0.041618
750.000000	0.041587
749.000000	0.041516
748.000000	0.041570
747.000000	0.041575
746.000000	0.041592
745.000000	0.041538
744.000000	0.041500
743.000000	0.041486
742.000000	0.041427
741.000000	0.041324
740.000000	0.041300
739.000000	0.041191
738.000000	0.040889
737.000000	0.040765
736.000000	0.040501
735.000000	0.040117
734.000000	0.039716
733.000000	0.039291
732.000000	0.038795
731.000000	0.038229
730.000000	0.037704
729.000000	0.037280
728.000000	0.036856
727.000000	0.036434
726.000000	0.036146
725.000000	0.035854
724.000000	0.035547
723.000000	0.035236
722.000000	0.035025
721.000000	0.034718
720.000000	0.034443
719.000000	0.034297
718.000000	0.034151
717.000000	0.033913
716.000000	0.033695
715.000000	0.033593
714.000000	0.033457
713.000000	0.033290
712.000000	0.033173
711.000000	0.033085
710.000000	0.033009
709.000000	0.032870
708.000000	0.032862
707.000000	0.032884
706.000000	0.032701
705.000000	0.032528
704.000000	0.032422
703.000000	0.032306
702.000000	0.032129
701.000000	0.031975
700.000000	0.031867
699.000000	0.031798
698.000000	0.031662
697.000000	0.031529
696.000000	0.031469
695.000000	0.031407
694.000000	0.031366
693.000000	0.031317
692.000000	0.031257
691.000000	0.031218
690.000000	0.031205
689.000000	0.031271
688.000000	0.031199
687.000000	0.031161
686.000000	0.031262
685.000000	0.031243
684.000000	0.031194
683.000000	0.031253
682.000000	0.031270
681.000000	0.031285
680.000000	0.031337
679.000000	0.031419
678.000000	0.031434
677.000000	0.031443
676.000000	0.031485
675.000000	0.031460
674.000000	0.031435
673.000000	0.031457
672.000000	0.031547
671.000000	0.031576
670.000000	0.031508
669.000000	0.031563
668.000000	0.031600
667.000000	0.031556
666.000000	0.031518
665.000000	0.031459
664.000000	0.031433
663.000000	0.031450
662.000000	0.031469
661.000000	0.031529
660.000000	0.031504
659.000000	0.031432
658.000000	0.031394
657.000000	0.031387
656.000000	0.031323
655.000000	0.031315
654.000000	0.031416
653.000000	0.031369
652.000000	0.031258
651.000000	0.031350
650.000000	0.031491
649.000000	0.031533
648.000000	0.031602
647.000000	0.031619
646.000000	0.031669
645.000000	0.031717
644.000000	0.031830
643.000000	0.031861
642.000000	0.031900
641.000000	0.031927
640.000000	0.032035
639.000000	0.032183
638.000000	0.032234
637.000000	0.032284
636.000000	0.032330
635.000000	0.032452
634.000000	0.032323
633.000000	0.032384
632.000000	0.032476
631.000000	0.032437
630.000000	0.032363
629.000000	0.032444
628.000000	0.032390
627.000000	0.032287
626.000000	0.032311
625.000000	0.032335
624.000000	0.032368
623.000000	0.032225
622.000000	0.032232
621.000000	0.032290
620.000000	0.032364
619.000000	0.032183
618.000000	0.032232
617.000000	0.032235
616.000000	0.032212
615.000000	0.032256
614.000000	0.032240
613.000000	0.032196
612.000000	0.032265
611.000000	0.032336
610.000000	0.032353
609.000000	0.032328
608.000000	0.032343
607.000000	0.032467
606.000000	0.032522
605.000000	0.032507
604.000000	0.032481
603.000000	0.032555
602.000000	0.032609
601.000000	0.032540
600.000000	0.032628
599.000000	0.032766
598.000000	0.032658
597.000000	0.032691
596.000000	0.032764
595.000000	0.032814
594.000000	0.032749
593.000000	0.032821
592.000000	0.032859
591.000000	0.032858
590.000000	0.032916
589.000000	0.033016
588.000000	0.033000
587.000000	0.033034
586.000000	0.033076
585.000000	0.033161
584.000000	0.033337
583.000000	0.033214
582.000000	0.033288
581.000000	0.033488
580.000000	0.033421
579.000000	0.033411
578.000000	0.033550
577.000000	0.033648
576.000000	0.033619
575.000000	0.033735
574.000000	0.033787
573.000000	0.033805
572.000000	0.033831
571.000000	0.033922
570.000000	0.034030
569.000000	0.034086
568.000000	0.034121
567.000000	0.034169
566.000000	0.034219
565.000000	0.034278
564.000000	0.034381
563.000000	0.034448
562.000000	0.034503
561.000000	0.034454
560.000000	0.034592
559.000000	0.034566
558.000000	0.034652
557.000000	0.034712
556.000000	0.034785
555.000000	0.034765
554.000000	0.034744
553.000000	0.034858
552.000000	0.034948
551.000000	0.034861
550.000000	0.034975
549.000000	0.035001
548.000000	0.034881
547.000000	0.034866
546.000000	0.034943
545.000000	0.034972
544.000000	0.034938
543.000000	0.034948
542.000000	0.034970
541.000000	0.034893
540.000000	0.034900
539.000000	0.034975
538.000000	0.034956
537.000000	0.034901
536.000000	0.034898
535.000000	0.034954
534.000000	0.034976
533.000000	0.034874
532.000000	0.034864
531.000000	0.034849
530.000000	0.034830
529.000000	0.034797
528.000000	0.034740
527.000000	0.034802
526.000000	0.034812
525.000000	0.034789
524.000000	0.034781
523.000000	0.034748
522.000000	0.034805
521.000000	0.034816
520.000000	0.034820
519.000000	0.034803
518.000000	0.034825
517.000000	0.034880
516.000000	0.034901
515.000000	0.034899
514.000000	0.034880
513.000000	0.034920
512.000000	0.034993
511.000000	0.035025
510.000000	0.035069
509.000000	0.035137
508.000000	0.035127
507.000000	0.035149
506.000000	0.035251
505.000000	0.035356
504.000000	0.035390
503.000000	0.035483
502.000000	0.035489
501.000000	0.035502
500.000000	0.035569
499.000000	0.035711
498.000000	0.035820
497.000000	0.035835
496.000000	0.035916
495.000000	0.036037
494.000000	0.036120
493.000000	0.036210
492.000000	0.036304
491.000000	0.036402
490.000000	0.036518
489.000000	0.036561
488.000000	0.036671
487.000000	0.036835
486.000000	0.036934
485.000000	0.037050
484.000000	0.037144
483.000000	0.037248
482.000000	0.037365
481.000000	0.037434
480.000000	0.037464
479.000000	0.037549
478.000000	0.037622
477.000000	0.037716
476.000000	0.037866
475.000000	0.037963
474.000000	0.038042
473.000000	0.038203
472.000000	0.038313
471.000000	0.038327
470.000000	0.038493
469.000000	0.038671
468.000000	0.038730
467.000000	0.038831
466.000000	0.039066
465.000000	0.039177
464.000000	0.039229
463.000000	0.039461
462.000000	0.039616
461.000000	0.039741
460.000000	0.039901
459.000000	0.039963
458.000000	0.040121
457.000000	0.040287
456.000000	0.040478
455.000000	0.040654
454.000000	0.040769
453.000000	0.040843
452.000000	0.040968
451.000000	0.041080
450.000000	0.041185
449.000000	0.041354
448.000000	0.041544
447.000000	0.041608
446.000000	0.041784
445.000000	0.041971
444.000000	0.042119
443.000000	0.042219
442.000000	0.042292
441.000000	0.042407
440.000000	0.042572
439.000000	0.042698
438.000000	0.042836
437.000000	0.042963
436.000000	0.043049
435.000000	0.043131
434.000000	0.043304
433.000000	0.043455
432.000000	0.043517
431.000000	0.043647
430.000000	0.043763
429.000000	0.043855
428.000000	0.043917
427.000000	0.044078
426.000000	0.044240
425.000000	0.044374
424.000000	0.044432
423.000000	0.044592
422.000000	0.044654
421.000000	0.044724
420.000000	0.044882
419.000000	0.045076
418.000000	0.045137
417.000000	0.045164
416.000000	0.045419
415.000000	0.045551
414.000000	0.045719
413.000000	0.045816
412.000000	0.046061
411.000000	0.046194
410.000000	0.046317
409.000000	0.046567
408.000000	0.046750
407.000000	0.046996
406.000000	0.047374
405.000000	0.047328
404.000000	0.047592
403.000000	0.047797
402.000000	0.048044
401.000000	0.048371
400.000000	0.048568
399.000000	0.048719
398.000000	0.049115
397.000000	0.049382
396.000000	0.049662
395.000000	0.049885
394.000000	0.050132
393.000000	0.050570
392.000000	0.050745
391.000000	0.051109
390.000000	0.051433
389.000000	0.051811
388.000000	0.052065
387.000000	0.052228
386.000000	0.052625
385.000000	0.053044
384.000000	0.053248
383.000000	0.053612
382.000000	0.053933
381.000000	0.054225
380.000000	0.054658
379.000000	0.055112
378.000000	0.055453
377.000000	0.055664
376.000000	0.056272
375.000000	0.056781
374.000000	0.057164
373.000000	0.057624
372.000000	0.058060
371.000000	0.058388
370.000000	0.058863
369.000000	0.059429
368.000000	0.059900
367.000000	0.060443
366.000000	0.060794
365.000000	0.061412
364.000000	0.061811
363.000000	0.062319
362.000000	0.062877
361.000000	0.063572
360.000000	0.064089
359.000000	0.064594
358.000000	0.065124
357.000000	0.065724
356.000000	0.066245
355.000000	0.066893
354.000000	0.067571
353.000000	0.068099
352.000000	0.068713
351.000000	0.069446
350.000000	0.070075
349.000000	0.070722
348.000000	0.071381
347.000000	0.072005
346.000000	0.072731
345.000000	0.073371
344.000000	0.074147
343.000000	0.074858
342.000000	0.075503
341.000000	0.076225
340.000000	0.077079
339.000000	0.077903
338.000000	0.078534
337.000000	0.079457
336.000000	0.080230
335.000000	0.080997
334.000000	0.081885
333.000000	0.082693
332.000000	0.083532
331.000000	0.084462
330.000000	0.085341
329.000000	0.086307
328.000000	0.087253
327.000000	0.088065
326.000000	0.088992
325.000000	0.089866
324.000000	0.090829
323.000000	0.091826
322.000000	0.092958
321.000000	0.094081
320.000000	0.095084
319.000000	0.096232
318.000000	0.097278
317.000000	0.098292
316.000000	0.099495
315.000000	0.100676
314.000000	0.101900
313.000000	0.103191
312.000000	0.104501
311.000000	0.105867
310.000000	0.107270
309.000000	0.108672
308.000000	0.110125
307.000000	0.111591
306.000000	0.113113
305.000000	0.114847
304.000000	0.116442
303.000000	0.118106
302.000000	0.119972
301.000000	0.121796
300.000000	0.123509
299.000000	0.125383
298.000000	0.127346
297.000000	0.129399
296.000000	0.131484
295.000000	0.133582
294.000000	0.135784
293.000000	0.138163
292.000000	0.140467
291.000000	0.142789
290.000000	0.145245
289.000000	0.147673
288.000000	0.150084
287.000000	0.152600
286.000000	0.155069
285.000000	0.157500
284.000000	0.160076
283.000000	0.162554
282.000000	0.164932
281.000000	0.167252
280.000000	0.169664
279.000000	0.172045
278.000000	0.174331
277.000000	0.176639
276.000000	0.179032
275.000000	0.181362
274.000000	0.183666
273.000000	0.185970
272.000000	0.188153
271.000000	0.190345
270.000000	0.192567
269.000000	0.194634
268.000000	0.196746
267.000000	0.198959
266.000000	0.201048
265.000000	0.203055
264.000000	0.205100
263.000000	0.206982
262.000000	0.208901
261.000000	0.210979
260.000000	0.212949
259.000000	0.214828
258.000000	0.216772
257.000000	0.218650
256.000000	0.220564
255.000000	0.222456
254.000000	0.224455
253.000000	0.226400
252.000000	0.228412
251.000000	0.230576
250.000000	0.232751
249.000000	0.235086
248.000000	0.237523
247.000000	0.240116
246.000000	0.242759
245.000000	0.245628
244.000000	0.248665
243.000000	0.252024
242.000000	0.255370
241.000000	0.258911
240.000000	0.262572
239.000000	0.266361
238.000000	0.270352
237.000000	0.274591
236.000000	0.278836
235.000000	0.283423
234.000000	0.288051
233.000000	0.292724
232.000000	0.297668
231.000000	0.302769
230.000000	0.307699
229.000000	0.312690
228.000000	0.317692
227.000000	0.323052
226.000000	0.328259
225.000000	0.333773
224.000000	0.339527
223.000000	0.345610
222.000000	0.352047
221.000000	0.359129
220.000000	0.367293
219.000000	0.376293
218.000000	0.386316
217.000000	0.397698
216.000000	0.410947
215.000000	0.426619
214.000000	0.444882
213.000000	0.466701
212.000000	0.492042
211.000000	0.521596
210.000000	0.556173
209.000000	0.596428
208.000000	0.642799
207.000000	0.697468
206.000000	0.761613
205.000000	0.837827
204.000000	0.929335
203.000000	1.042508
202.000000	1.183888
201.000000	1.364048
200.000000	1.599669
