PE UV       SUBTECH     SPECTRUM    ASCII       PEDS        4.00        
   -1
KY6-03A.Sample.Raw.asc
11/10/07
13:13:54.00
11/10/07
13:13:54.00
Hermanni Kaartokallio

200.000000
1
Lambda 650
650N8121101
PerkinElmer UV WinLab 6.0.2.0723 / 1.61.00 Lambda 650

0
0
2
0
0
UV/VIS
1
1
1
uv/vis/nir detector
0
0
0
0
Fix
 
0
0.24
0
0
0
 
 
 
0
 
0
319.2
0
Front
100
 
 
 
0
0
0
 
0
 
 
 
0
 
 
0
0
0
0
0
 
 
 
 
0
0
#HDR
-1
-1
#GR
nm
A
1.0
0.0
800.000000
-1.000000
601
8
3.209218
0.039573
#DATA
800.000000	0.045180
799.000000	0.045219
798.000000	0.045149
797.000000	0.045123
796.000000	0.045410
795.000000	0.045459
794.000000	0.045396
793.000000	0.045527
792.000000	0.045620
791.000000	0.045655
790.000000	0.045750
789.000000	0.045861
788.000000	0.046004
787.000000	0.046037
786.000000	0.046016
785.000000	0.046296
784.000000	0.046269
783.000000	0.046295
782.000000	0.046409
781.000000	0.046615
780.000000	0.046440
779.000000	0.046446
778.000000	0.046679
777.000000	0.046727
776.000000	0.046633
775.000000	0.046698
774.000000	0.046785
773.000000	0.046749
772.000000	0.046726
771.000000	0.046971
770.000000	0.047105
769.000000	0.046967
768.000000	0.046992
767.000000	0.047088
766.000000	0.047097
765.000000	0.047102
764.000000	0.047143
763.000000	0.047261
762.000000	0.047196
761.000000	0.047336
760.000000	0.047440
759.000000	0.047477
758.000000	0.047488
757.000000	0.047560
756.000000	0.047630
755.000000	0.047742
754.000000	0.047661
753.000000	0.047704
752.000000	0.047800
751.000000	0.047786
750.000000	0.047719
749.000000	0.047906
748.000000	0.047991
747.000000	0.047878
746.000000	0.047954
745.000000	0.048046
744.000000	0.047930
743.000000	0.047807
742.000000	0.047959
741.000000	0.048046
740.000000	0.047868
739.000000	0.047806
738.000000	0.047737
737.000000	0.047564
736.000000	0.047228
735.000000	0.046967
734.000000	0.046686
733.000000	0.046217
732.000000	0.045708
731.000000	0.045269
730.000000	0.044785
729.000000	0.044312
728.000000	0.043900
727.000000	0.043607
726.000000	0.043270
725.000000	0.043018
724.000000	0.042796
723.000000	0.042621
722.000000	0.042380
721.000000	0.042170
720.000000	0.042004
719.000000	0.041837
718.000000	0.041571
717.000000	0.041444
716.000000	0.041321
715.000000	0.041060
714.000000	0.040828
713.000000	0.040767
712.000000	0.040663
711.000000	0.040481
710.000000	0.040427
709.000000	0.040373
708.000000	0.040253
707.000000	0.040084
706.000000	0.040033
705.000000	0.039975
704.000000	0.039816
703.000000	0.039753
702.000000	0.039849
701.000000	0.039809
700.000000	0.039771
699.000000	0.039852
698.000000	0.039801
697.000000	0.039684
696.000000	0.039573
695.000000	0.039606
694.000000	0.039686
693.000000	0.039651
692.000000	0.039644
691.000000	0.039674
690.000000	0.039625
689.000000	0.039587
688.000000	0.039611
687.000000	0.039645
686.000000	0.039673
685.000000	0.039693
684.000000	0.039749
683.000000	0.039797
682.000000	0.039746
681.000000	0.039855
680.000000	0.040004
679.000000	0.039973
678.000000	0.039964
677.000000	0.039990
676.000000	0.039996
675.000000	0.039932
674.000000	0.040093
673.000000	0.040265
672.000000	0.040262
671.000000	0.040335
670.000000	0.040339
669.000000	0.040331
668.000000	0.040294
667.000000	0.040385
666.000000	0.040493
665.000000	0.040489
664.000000	0.040347
663.000000	0.040354
662.000000	0.040517
661.000000	0.040455
660.000000	0.040472
659.000000	0.040497
658.000000	0.040489
657.000000	0.040603
656.000000	0.040606
655.000000	0.040689
654.000000	0.040618
653.000000	0.040471
652.000000	0.040449
651.000000	0.040511
650.000000	0.040529
649.000000	0.040625
648.000000	0.040721
647.000000	0.040770
646.000000	0.040735
645.000000	0.040869
644.000000	0.040971
643.000000	0.040977
642.000000	0.041047
641.000000	0.041172
640.000000	0.041264
639.000000	0.041198
638.000000	0.041340
637.000000	0.041467
636.000000	0.041420
635.000000	0.041411
634.000000	0.041516
633.000000	0.041622
632.000000	0.041756
631.000000	0.041815
630.000000	0.041937
629.000000	0.041936
628.000000	0.041894
627.000000	0.042020
626.000000	0.042206
625.000000	0.042204
624.000000	0.042274
623.000000	0.042459
622.000000	0.042468
621.000000	0.042529
620.000000	0.042603
619.000000	0.042775
618.000000	0.042785
617.000000	0.042829
616.000000	0.042991
615.000000	0.043137
614.000000	0.043185
613.000000	0.043224
612.000000	0.043347
611.000000	0.043542
610.000000	0.043505
609.000000	0.043596
608.000000	0.043773
607.000000	0.043925
606.000000	0.043886
605.000000	0.044066
604.000000	0.044226
603.000000	0.044254
602.000000	0.044254
601.000000	0.044540
600.000000	0.044495
599.000000	0.044463
598.000000	0.044559
597.000000	0.044665
596.000000	0.044719
595.000000	0.044685
594.000000	0.044947
593.000000	0.045090
592.000000	0.045007
591.000000	0.045079
590.000000	0.045319
589.000000	0.045359
588.000000	0.045353
587.000000	0.045488
586.000000	0.045665
585.000000	0.045580
584.000000	0.045741
583.000000	0.045819
582.000000	0.045969
581.000000	0.045975
580.000000	0.046163
579.000000	0.046259
578.000000	0.046365
577.000000	0.046336
576.000000	0.046582
575.000000	0.046713
574.000000	0.046725
573.000000	0.046647
572.000000	0.046895
571.000000	0.047057
570.000000	0.047084
569.000000	0.047122
568.000000	0.047298
567.000000	0.047391
566.000000	0.047438
565.000000	0.047739
564.000000	0.047777
563.000000	0.047881
562.000000	0.047919
561.000000	0.048125
560.000000	0.048112
559.000000	0.048205
558.000000	0.048418
557.000000	0.048557
556.000000	0.048662
555.000000	0.048756
554.000000	0.048920
553.000000	0.049057
552.000000	0.049184
551.000000	0.049327
550.000000	0.049454
549.000000	0.049514
548.000000	0.049540
547.000000	0.049801
546.000000	0.050020
545.000000	0.050107
544.000000	0.050288
543.000000	0.050455
542.000000	0.050537
541.000000	0.050647
540.000000	0.050898
539.000000	0.051079
538.000000	0.051153
537.000000	0.051271
536.000000	0.051609
535.000000	0.051720
534.000000	0.051897
533.000000	0.052185
532.000000	0.052328
531.000000	0.052404
530.000000	0.052621
529.000000	0.052927
528.000000	0.053114
527.000000	0.053236
526.000000	0.053447
525.000000	0.053721
524.000000	0.053901
523.000000	0.054069
522.000000	0.054334
521.000000	0.054598
520.000000	0.054800
519.000000	0.054995
518.000000	0.055316
517.000000	0.055584
516.000000	0.055791
515.000000	0.056075
514.000000	0.056296
513.000000	0.056457
512.000000	0.056680
511.000000	0.056990
510.000000	0.057263
509.000000	0.057473
508.000000	0.057737
507.000000	0.058013
506.000000	0.058218
505.000000	0.058419
504.000000	0.058707
503.000000	0.059009
502.000000	0.059219
501.000000	0.059454
500.000000	0.059773
499.000000	0.060005
498.000000	0.060175
497.000000	0.060520
496.000000	0.060887
495.000000	0.061067
494.000000	0.061316
493.000000	0.061679
492.000000	0.061992
491.000000	0.062252
490.000000	0.062573
489.000000	0.062889
488.000000	0.063135
487.000000	0.063448
486.000000	0.063809
485.000000	0.064131
484.000000	0.064414
483.000000	0.064695
482.000000	0.065112
481.000000	0.065439
480.000000	0.065722
479.000000	0.066097
478.000000	0.066483
477.000000	0.066813
476.000000	0.067129
475.000000	0.067577
474.000000	0.068015
473.000000	0.068357
472.000000	0.068792
471.000000	0.069238
470.000000	0.069641
469.000000	0.070010
468.000000	0.070475
467.000000	0.071064
466.000000	0.071497
465.000000	0.071882
464.000000	0.072404
463.000000	0.072958
462.000000	0.073430
461.000000	0.073914
460.000000	0.074447
459.000000	0.074992
458.000000	0.075566
457.000000	0.076202
456.000000	0.076777
455.000000	0.077254
454.000000	0.077840
453.000000	0.078525
452.000000	0.079107
451.000000	0.079696
450.000000	0.080371
449.000000	0.081091
448.000000	0.081749
447.000000	0.082362
446.000000	0.083153
445.000000	0.083923
444.000000	0.084534
443.000000	0.085240
442.000000	0.086090
441.000000	0.086789
440.000000	0.087531
439.000000	0.088370
438.000000	0.089322
437.000000	0.090044
436.000000	0.090848
435.000000	0.091703
434.000000	0.092642
433.000000	0.093460
432.000000	0.094396
431.000000	0.095381
430.000000	0.096291
429.000000	0.097145
428.000000	0.098181
427.000000	0.099205
426.000000	0.100098
425.000000	0.101127
424.000000	0.102181
423.000000	0.103166
422.000000	0.104201
421.000000	0.105358
420.000000	0.106492
419.000000	0.107530
418.000000	0.108696
417.000000	0.109803
416.000000	0.111067
415.000000	0.112156
414.000000	0.113308
413.000000	0.114687
412.000000	0.115887
411.000000	0.117034
410.000000	0.118346
409.000000	0.119688
408.000000	0.120940
407.000000	0.122217
406.000000	0.123647
405.000000	0.125023
404.000000	0.126299
403.000000	0.127795
402.000000	0.129339
401.000000	0.130732
400.000000	0.132091
399.000000	0.133629
398.000000	0.135275
397.000000	0.136800
396.000000	0.138300
395.000000	0.140039
394.000000	0.141765
393.000000	0.143356
392.000000	0.144992
391.000000	0.146905
390.000000	0.148587
389.000000	0.150238
388.000000	0.152163
387.000000	0.154107
386.000000	0.155946
385.000000	0.157889
384.000000	0.159961
383.000000	0.161925
382.000000	0.163963
381.000000	0.165975
380.000000	0.168259
379.000000	0.170397
378.000000	0.172689
377.000000	0.174952
376.000000	0.177200
375.000000	0.179533
374.000000	0.181967
373.000000	0.184391
372.000000	0.186799
371.000000	0.189236
370.000000	0.191923
369.000000	0.194584
368.000000	0.197090
367.000000	0.199734
366.000000	0.202513
365.000000	0.205157
364.000000	0.208037
363.000000	0.210981
362.000000	0.213942
361.000000	0.216773
360.000000	0.219656
359.000000	0.222800
358.000000	0.225872
357.000000	0.228996
356.000000	0.232229
355.000000	0.235539
354.000000	0.238727
353.000000	0.241909
352.000000	0.245390
351.000000	0.248635
350.000000	0.251998
349.000000	0.255555
348.000000	0.259105
347.000000	0.262417
346.000000	0.265976
345.000000	0.269655
344.000000	0.273402
343.000000	0.277019
342.000000	0.280652
341.000000	0.284499
340.000000	0.288392
339.000000	0.292129
338.000000	0.295955
337.000000	0.299957
336.000000	0.303856
335.000000	0.307867
334.000000	0.312012
333.000000	0.316125
332.000000	0.320176
331.000000	0.324256
330.000000	0.328606
329.000000	0.332945
328.000000	0.337027
327.000000	0.341509
326.000000	0.345823
325.000000	0.350238
324.000000	0.354859
323.000000	0.359301
322.000000	0.363490
321.000000	0.368164
320.000000	0.372872
319.000000	0.377780
318.000000	0.381683
317.000000	0.384658
316.000000	0.389472
315.000000	0.394430
314.000000	0.399452
313.000000	0.404623
312.000000	0.409734
311.000000	0.414782
310.000000	0.420023
309.000000	0.425303
308.000000	0.430594
307.000000	0.435953
306.000000	0.441409
305.000000	0.446885
304.000000	0.452369
303.000000	0.457941
302.000000	0.463762
301.000000	0.469528
300.000000	0.475254
299.000000	0.481087
298.000000	0.487047
297.000000	0.492994
296.000000	0.499089
295.000000	0.505406
294.000000	0.511649
293.000000	0.518000
292.000000	0.524589
291.000000	0.531314
290.000000	0.537938
289.000000	0.544803
288.000000	0.551812
287.000000	0.558619
286.000000	0.565457
285.000000	0.572591
284.000000	0.579792
283.000000	0.586798
282.000000	0.593805
281.000000	0.600866
280.000000	0.608048
279.000000	0.615053
278.000000	0.621950
277.000000	0.629124
276.000000	0.636371
275.000000	0.643601
274.000000	0.651058
273.000000	0.658557
272.000000	0.665914
271.000000	0.673217
270.000000	0.680572
269.000000	0.687881
268.000000	0.694959
267.000000	0.702106
266.000000	0.709323
265.000000	0.716323
264.000000	0.723180
263.000000	0.730079
262.000000	0.736900
261.000000	0.743589
260.000000	0.750100
259.000000	0.756600
258.000000	0.762961
257.000000	0.769158
256.000000	0.775661
255.000000	0.782204
254.000000	0.788709
253.000000	0.795361
252.000000	0.802310
251.000000	0.809319
250.000000	0.816606
249.000000	0.824265
248.000000	0.832387
247.000000	0.840851
246.000000	0.849812
245.000000	0.859400
244.000000	0.869732
243.000000	0.880616
242.000000	0.892091
241.000000	0.904312
240.000000	0.917329
239.000000	0.931059
238.000000	0.945480
237.000000	0.961027
236.000000	0.977870
235.000000	0.995817
234.000000	1.015237
233.000000	1.036197
232.000000	1.058911
231.000000	1.083319
230.000000	1.109782
229.000000	1.138434
228.000000	1.168982
227.000000	1.202308
226.000000	1.238811
225.000000	1.277774
224.000000	1.320208
223.000000	1.366378
222.000000	1.415553
221.000000	1.467223
220.000000	1.522467
219.000000	1.580562
218.000000	1.641220
217.000000	1.704555
216.000000	1.769938
215.000000	1.837560
214.000000	1.906885
213.000000	1.977521
212.000000	2.048558
211.000000	2.121037
210.000000	2.192708
209.000000	2.263438
208.000000	2.338149
207.000000	2.411674
206.000000	2.486968
205.000000	2.568065
204.000000	2.656976
203.000000	2.755829
202.000000	2.873574
201.000000	3.022099
200.000000	3.209218
