PE UV       SUBTECH     SPECTRUM    ASCII       PEDS        4.00        
   -1
KY6-01B.Sample.Raw.asc
11/10/07
13:00:40.00
11/10/07
13:00:40.00
Hermanni Kaartokallio

200.000000
1
Lambda 650
650N8121101
PerkinElmer UV WinLab 6.0.2.0723 / 1.61.00 Lambda 650

0
0
2
0
0
UV/VIS
1
1
1
uv/vis/nir detector
0
0
0
0
Fix
 
0
0.24
0
0
0
 
 
 
0
 
0
319.2
0
Front
100
 
 
 
0
0
0
 
0
 
 
 
0
 
 
0
0
0
0
0
 
 
 
 
0
0
#HDR
-1
-1
#GR
nm
A
1.0
0.0
800.000000
-1.000000
601
8
4.069015
0.041420
#DATA
800.000000	0.045912
799.000000	0.045958
798.000000	0.046181
797.000000	0.045926
796.000000	0.046144
795.000000	0.046355
794.000000	0.046404
793.000000	0.046484
792.000000	0.046493
791.000000	0.046616
790.000000	0.046742
789.000000	0.046793
788.000000	0.046988
787.000000	0.047048
786.000000	0.047040
785.000000	0.047100
784.000000	0.047298
783.000000	0.047313
782.000000	0.047399
781.000000	0.047547
780.000000	0.047526
779.000000	0.047447
778.000000	0.047627
777.000000	0.047834
776.000000	0.047779
775.000000	0.047750
774.000000	0.047828
773.000000	0.048015
772.000000	0.047971
771.000000	0.048033
770.000000	0.048046
769.000000	0.048162
768.000000	0.048141
767.000000	0.048230
766.000000	0.048354
765.000000	0.048333
764.000000	0.048351
763.000000	0.048367
762.000000	0.048468
761.000000	0.048581
760.000000	0.048626
759.000000	0.048692
758.000000	0.048796
757.000000	0.048810
756.000000	0.048785
755.000000	0.048894
754.000000	0.048967
753.000000	0.048900
752.000000	0.048989
751.000000	0.049043
750.000000	0.048933
749.000000	0.049103
748.000000	0.049207
747.000000	0.049150
746.000000	0.049216
745.000000	0.049208
744.000000	0.049169
743.000000	0.049186
742.000000	0.049113
741.000000	0.049178
740.000000	0.049095
739.000000	0.048945
738.000000	0.048884
737.000000	0.048817
736.000000	0.048551
735.000000	0.048223
734.000000	0.047947
733.000000	0.047564
732.000000	0.047072
731.000000	0.046564
730.000000	0.046102
729.000000	0.045725
728.000000	0.045262
727.000000	0.044882
726.000000	0.044646
725.000000	0.044444
724.000000	0.044147
723.000000	0.043977
722.000000	0.043839
721.000000	0.043646
720.000000	0.043410
719.000000	0.043281
718.000000	0.043062
717.000000	0.042861
716.000000	0.042748
715.000000	0.042615
714.000000	0.042411
713.000000	0.042227
712.000000	0.042145
711.000000	0.042132
710.000000	0.042041
709.000000	0.041910
708.000000	0.041850
707.000000	0.041765
706.000000	0.041704
705.000000	0.041621
704.000000	0.041534
703.000000	0.041444
702.000000	0.041420
701.000000	0.041483
700.000000	0.041530
699.000000	0.041577
698.000000	0.041543
697.000000	0.041505
696.000000	0.041441
695.000000	0.041421
694.000000	0.041466
693.000000	0.041498
692.000000	0.041546
691.000000	0.041533
690.000000	0.041559
689.000000	0.041572
688.000000	0.041540
687.000000	0.041586
686.000000	0.041667
685.000000	0.041675
684.000000	0.041721
683.000000	0.041827
682.000000	0.041829
681.000000	0.041892
680.000000	0.042034
679.000000	0.042071
678.000000	0.042054
677.000000	0.042066
676.000000	0.042092
675.000000	0.042078
674.000000	0.042171
673.000000	0.042369
672.000000	0.042450
671.000000	0.042508
670.000000	0.042484
669.000000	0.042586
668.000000	0.042658
667.000000	0.042659
666.000000	0.042754
665.000000	0.042862
664.000000	0.042745
663.000000	0.042713
662.000000	0.042842
661.000000	0.042878
660.000000	0.042900
659.000000	0.042865
658.000000	0.042906
657.000000	0.043112
656.000000	0.043071
655.000000	0.043073
654.000000	0.043113
653.000000	0.042981
652.000000	0.042986
651.000000	0.043065
650.000000	0.043120
649.000000	0.043176
648.000000	0.043262
647.000000	0.043403
646.000000	0.043462
645.000000	0.043523
644.000000	0.043602
643.000000	0.043685
642.000000	0.043757
641.000000	0.043860
640.000000	0.043939
639.000000	0.044007
638.000000	0.044132
637.000000	0.044172
636.000000	0.044254
635.000000	0.044328
634.000000	0.044351
633.000000	0.044478
632.000000	0.044694
631.000000	0.044751
630.000000	0.044818
629.000000	0.044909
628.000000	0.044918
627.000000	0.045054
626.000000	0.045211
625.000000	0.045331
624.000000	0.045388
623.000000	0.045465
622.000000	0.045596
621.000000	0.045746
620.000000	0.045834
619.000000	0.045946
618.000000	0.046107
617.000000	0.046169
616.000000	0.046276
615.000000	0.046451
614.000000	0.046639
613.000000	0.046672
612.000000	0.046781
611.000000	0.047018
610.000000	0.047040
609.000000	0.047109
608.000000	0.047333
607.000000	0.047472
606.000000	0.047516
605.000000	0.047717
604.000000	0.047745
603.000000	0.047929
602.000000	0.048016
601.000000	0.048134
600.000000	0.048256
599.000000	0.048333
598.000000	0.048314
597.000000	0.048471
596.000000	0.048583
595.000000	0.048628
594.000000	0.048794
593.000000	0.048943
592.000000	0.049030
591.000000	0.049097
590.000000	0.049238
589.000000	0.049396
588.000000	0.049511
587.000000	0.049594
586.000000	0.049686
585.000000	0.049733
584.000000	0.049972
583.000000	0.050058
582.000000	0.050170
581.000000	0.050256
580.000000	0.050455
579.000000	0.050560
578.000000	0.050705
577.000000	0.050844
576.000000	0.050985
575.000000	0.051139
574.000000	0.051221
573.000000	0.051241
572.000000	0.051443
571.000000	0.051642
570.000000	0.051810
569.000000	0.051884
568.000000	0.052035
567.000000	0.052236
566.000000	0.052349
565.000000	0.052548
564.000000	0.052645
563.000000	0.052898
562.000000	0.052932
561.000000	0.053138
560.000000	0.053229
559.000000	0.053344
558.000000	0.053546
557.000000	0.053770
556.000000	0.053958
555.000000	0.054086
554.000000	0.054232
553.000000	0.054513
552.000000	0.054700
551.000000	0.054828
550.000000	0.055025
549.000000	0.055201
548.000000	0.055302
547.000000	0.055506
546.000000	0.055778
545.000000	0.055967
544.000000	0.056099
543.000000	0.056307
542.000000	0.056498
541.000000	0.056673
540.000000	0.056935
539.000000	0.057211
538.000000	0.057405
537.000000	0.057544
536.000000	0.057816
535.000000	0.058068
534.000000	0.058319
533.000000	0.058569
532.000000	0.058779
531.000000	0.058976
530.000000	0.059238
529.000000	0.059487
528.000000	0.059795
527.000000	0.060048
526.000000	0.060259
525.000000	0.060560
524.000000	0.060889
523.000000	0.061171
522.000000	0.061383
521.000000	0.061710
520.000000	0.062046
519.000000	0.062268
518.000000	0.062585
517.000000	0.062961
516.000000	0.063315
515.000000	0.063603
514.000000	0.063854
513.000000	0.064169
512.000000	0.064419
511.000000	0.064785
510.000000	0.065157
509.000000	0.065483
508.000000	0.065800
507.000000	0.066052
506.000000	0.066344
505.000000	0.066695
504.000000	0.067050
503.000000	0.067442
502.000000	0.067740
501.000000	0.068011
500.000000	0.068365
499.000000	0.068731
498.000000	0.069077
497.000000	0.069506
496.000000	0.069905
495.000000	0.070170
494.000000	0.070525
493.000000	0.070972
492.000000	0.071353
491.000000	0.071715
490.000000	0.072108
489.000000	0.072507
488.000000	0.072916
487.000000	0.073372
486.000000	0.073787
485.000000	0.074175
484.000000	0.074604
483.000000	0.074974
482.000000	0.075425
481.000000	0.075916
480.000000	0.076362
479.000000	0.076779
478.000000	0.077281
477.000000	0.077825
476.000000	0.078273
475.000000	0.078804
474.000000	0.079359
473.000000	0.079899
472.000000	0.080416
471.000000	0.080895
470.000000	0.081463
469.000000	0.082007
468.000000	0.082589
467.000000	0.083232
466.000000	0.083828
465.000000	0.084405
464.000000	0.085044
463.000000	0.085701
462.000000	0.086375
461.000000	0.087008
460.000000	0.087705
459.000000	0.088435
458.000000	0.089160
457.000000	0.089865
456.000000	0.090615
455.000000	0.091333
454.000000	0.092076
453.000000	0.092829
452.000000	0.093647
451.000000	0.094454
450.000000	0.095306
449.000000	0.096169
448.000000	0.097031
447.000000	0.097877
446.000000	0.098784
445.000000	0.099796
444.000000	0.100691
443.000000	0.101519
442.000000	0.102562
441.000000	0.103554
440.000000	0.104597
439.000000	0.105603
438.000000	0.106763
437.000000	0.107870
436.000000	0.109016
435.000000	0.110025
434.000000	0.111175
433.000000	0.112457
432.000000	0.113694
431.000000	0.114936
430.000000	0.116197
429.000000	0.117446
428.000000	0.118677
427.000000	0.120116
426.000000	0.121493
425.000000	0.122987
424.000000	0.124383
423.000000	0.125752
422.000000	0.127330
421.000000	0.128857
420.000000	0.130425
419.000000	0.132037
418.000000	0.133700
417.000000	0.135225
416.000000	0.136981
415.000000	0.138737
414.000000	0.140437
413.000000	0.142286
412.000000	0.144113
411.000000	0.145883
410.000000	0.147785
409.000000	0.149817
408.000000	0.151787
407.000000	0.153703
406.000000	0.155854
405.000000	0.157931
404.000000	0.160008
403.000000	0.162211
402.000000	0.164468
401.000000	0.166794
400.000000	0.169036
399.000000	0.171410
398.000000	0.173839
397.000000	0.176299
396.000000	0.178777
395.000000	0.181310
394.000000	0.184066
393.000000	0.186666
392.000000	0.189270
391.000000	0.192157
390.000000	0.195015
389.000000	0.197830
388.000000	0.200752
387.000000	0.203672
386.000000	0.206829
385.000000	0.209873
384.000000	0.213111
383.000000	0.216190
382.000000	0.219649
381.000000	0.222743
380.000000	0.226287
379.000000	0.229827
378.000000	0.233645
377.000000	0.236991
376.000000	0.240857
375.000000	0.244585
374.000000	0.248064
373.000000	0.252148
372.000000	0.255935
371.000000	0.259851
370.000000	0.263958
369.000000	0.268156
368.000000	0.272327
367.000000	0.276327
366.000000	0.280538
365.000000	0.284929
364.000000	0.289422
363.000000	0.293974
362.000000	0.298480
361.000000	0.303149
360.000000	0.307724
359.000000	0.312361
358.000000	0.317151
357.000000	0.322070
356.000000	0.326994
355.000000	0.332069
354.000000	0.337058
353.000000	0.342119
352.000000	0.347309
351.000000	0.352445
350.000000	0.357756
349.000000	0.362850
348.000000	0.368077
347.000000	0.373466
346.000000	0.378870
345.000000	0.384541
344.000000	0.390062
343.000000	0.395811
342.000000	0.401423
341.000000	0.407224
340.000000	0.413174
339.000000	0.419035
338.000000	0.424867
337.000000	0.430915
336.000000	0.436968
335.000000	0.443122
334.000000	0.449306
333.000000	0.455637
332.000000	0.462008
331.000000	0.468386
330.000000	0.474880
329.000000	0.481489
328.000000	0.487980
327.000000	0.494730
326.000000	0.501558
325.000000	0.508475
324.000000	0.515398
323.000000	0.522500
322.000000	0.529708
321.000000	0.537035
320.000000	0.544288
319.000000	0.551818
318.000000	0.558711
317.000000	0.565084
316.000000	0.572692
315.000000	0.580635
314.000000	0.588661
313.000000	0.597441
312.000000	0.606226
311.000000	0.614334
310.000000	0.622479
309.000000	0.630727
308.000000	0.639250
307.000000	0.647742
306.000000	0.656245
305.000000	0.665063
304.000000	0.673885
303.000000	0.682722
302.000000	0.691669
301.000000	0.700648
300.000000	0.709413
299.000000	0.717797
298.000000	0.726493
297.000000	0.735530
296.000000	0.744768
295.000000	0.754302
294.000000	0.763714
293.000000	0.773306
292.000000	0.783496
291.000000	0.793806
290.000000	0.804163
289.000000	0.814594
288.000000	0.825113
287.000000	0.835788
286.000000	0.846675
285.000000	0.857743
284.000000	0.868838
283.000000	0.880164
282.000000	0.891597
281.000000	0.903025
280.000000	0.914548
279.000000	0.926334
278.000000	0.938334
277.000000	0.950411
276.000000	0.962684
275.000000	0.975025
274.000000	0.987555
273.000000	1.000363
272.000000	1.013132
271.000000	1.025644
270.000000	1.038011
269.000000	1.050219
268.000000	1.062418
267.000000	1.074559
266.000000	1.086419
265.000000	1.098006
264.000000	1.109334
263.000000	1.120471
262.000000	1.131243
261.000000	1.141830
260.000000	1.151918
259.000000	1.161863
258.000000	1.171778
257.000000	1.181504
256.000000	1.191164
255.000000	1.200768
254.000000	1.210534
253.000000	1.220599
252.000000	1.230663
251.000000	1.241094
250.000000	1.252149
249.000000	1.263665
248.000000	1.275807
247.000000	1.288854
246.000000	1.302900
245.000000	1.317621
244.000000	1.333569
243.000000	1.350489
242.000000	1.368798
241.000000	1.388020
240.000000	1.408487
239.000000	1.430168
238.000000	1.453247
237.000000	1.478153
236.000000	1.504874
235.000000	1.533528
234.000000	1.563846
233.000000	1.596733
232.000000	1.632197
231.000000	1.670318
230.000000	1.711717
229.000000	1.756321
228.000000	1.804242
227.000000	1.855697
226.000000	1.911273
225.000000	1.971959
224.000000	2.037502
223.000000	2.107661
222.000000	2.182011
221.000000	2.260576
220.000000	2.343400
219.000000	2.431632
218.000000	2.522827
217.000000	2.616340
216.000000	2.709170
215.000000	2.805235
214.000000	2.906663
213.000000	3.005971
212.000000	3.103991
211.000000	3.201246
210.000000	3.291007
209.000000	3.372892
208.000000	3.468136
207.000000	3.546245
206.000000	3.661532
205.000000	3.710696
204.000000	3.750521
203.000000	3.808395
202.000000	3.924811
201.000000	3.986830
200.000000	4.069015
