PE UV       SUBTECH     SPECTRUM    ASCII       PEDS        4.00        
   -1
KY6-04A.Sample.Raw.asc
11/10/07
13:27:11.00
11/10/07
13:27:11.00
Hermanni Kaartokallio

200.000000
1
Lambda 650
650N8121101
PerkinElmer UV WinLab 6.0.2.0723 / 1.61.00 Lambda 650

0
0
2
0
0
UV/VIS
1
1
1
uv/vis/nir detector
0
0
0
0
Fix
 
0
0.24
0
0
0
 
 
 
0
 
0
319.2
0
Front
100
 
 
 
0
0
0
 
0
 
 
 
0
 
 
0
0
0
0
0
 
 
 
 
0
0
#HDR
-1
-1
#GR
nm
A
1.0
0.0
800.000000
-1.000000
601
8
2.092339
0.036632
#DATA
800.000000	0.044196
799.000000	0.044197
798.000000	0.044290
797.000000	0.044301
796.000000	0.044507
795.000000	0.044510
794.000000	0.044640
793.000000	0.044634
792.000000	0.044736
791.000000	0.044657
790.000000	0.044871
789.000000	0.044956
788.000000	0.045070
787.000000	0.045204
786.000000	0.045201
785.000000	0.045319
784.000000	0.045362
783.000000	0.045421
782.000000	0.045555
781.000000	0.045604
780.000000	0.045481
779.000000	0.045516
778.000000	0.045665
777.000000	0.045663
776.000000	0.045623
775.000000	0.045716
774.000000	0.045715
773.000000	0.045676
772.000000	0.045700
771.000000	0.045845
770.000000	0.045885
769.000000	0.045865
768.000000	0.045885
767.000000	0.045946
766.000000	0.045933
765.000000	0.045953
764.000000	0.046032
763.000000	0.046108
762.000000	0.046088
761.000000	0.046174
760.000000	0.046230
759.000000	0.046204
758.000000	0.046275
757.000000	0.046392
756.000000	0.046290
755.000000	0.046337
754.000000	0.046397
753.000000	0.046494
752.000000	0.046523
751.000000	0.046498
750.000000	0.046503
749.000000	0.046635
748.000000	0.046679
747.000000	0.046651
746.000000	0.046744
745.000000	0.046748
744.000000	0.046581
743.000000	0.046561
742.000000	0.046673
741.000000	0.046728
740.000000	0.046587
739.000000	0.046568
738.000000	0.046467
737.000000	0.046253
736.000000	0.045949
735.000000	0.045710
734.000000	0.045357
733.000000	0.044839
732.000000	0.044340
731.000000	0.043781
730.000000	0.043252
729.000000	0.042836
728.000000	0.042452
727.000000	0.042061
726.000000	0.041628
725.000000	0.041355
724.000000	0.041173
723.000000	0.040947
722.000000	0.040647
721.000000	0.040415
720.000000	0.040233
719.000000	0.040026
718.000000	0.039794
717.000000	0.039659
716.000000	0.039510
715.000000	0.039278
714.000000	0.039058
713.000000	0.038907
712.000000	0.038764
711.000000	0.038586
710.000000	0.038443
709.000000	0.038296
708.000000	0.038094
707.000000	0.037925
706.000000	0.037867
705.000000	0.037695
704.000000	0.037524
703.000000	0.037471
702.000000	0.037447
701.000000	0.037385
700.000000	0.037409
699.000000	0.037471
698.000000	0.037367
697.000000	0.037233
696.000000	0.037117
695.000000	0.037131
694.000000	0.037169
693.000000	0.037124
692.000000	0.037112
691.000000	0.037079
690.000000	0.037013
689.000000	0.036986
688.000000	0.036999
687.000000	0.037034
686.000000	0.037021
685.000000	0.037021
684.000000	0.037006
683.000000	0.036970
682.000000	0.036988
681.000000	0.037070
680.000000	0.037106
679.000000	0.037078
678.000000	0.037070
677.000000	0.037073
676.000000	0.037034
675.000000	0.036947
674.000000	0.037058
673.000000	0.037169
672.000000	0.037142
671.000000	0.037186
670.000000	0.037210
669.000000	0.037186
668.000000	0.037113
667.000000	0.037166
666.000000	0.037192
665.000000	0.037194
664.000000	0.037119
663.000000	0.036982
662.000000	0.037034
661.000000	0.036979
660.000000	0.037034
659.000000	0.037045
658.000000	0.037008
657.000000	0.036996
656.000000	0.036946
655.000000	0.036952
654.000000	0.036863
653.000000	0.036767
652.000000	0.036744
651.000000	0.036632
650.000000	0.036632
649.000000	0.036721
648.000000	0.036747
647.000000	0.036750
646.000000	0.036792
645.000000	0.036770
644.000000	0.036793
643.000000	0.036757
642.000000	0.036796
641.000000	0.036916
640.000000	0.036959
639.000000	0.036797
638.000000	0.036931
637.000000	0.036977
636.000000	0.036911
635.000000	0.036927
634.000000	0.037020
633.000000	0.036927
632.000000	0.037068
631.000000	0.037129
630.000000	0.037179
629.000000	0.037093
628.000000	0.037086
627.000000	0.037112
626.000000	0.037250
625.000000	0.037238
624.000000	0.037287
623.000000	0.037330
622.000000	0.037354
621.000000	0.037278
620.000000	0.037389
619.000000	0.037550
618.000000	0.037467
617.000000	0.037462
616.000000	0.037618
615.000000	0.037557
614.000000	0.037577
613.000000	0.037702
612.000000	0.037757
611.000000	0.037766
610.000000	0.037822
609.000000	0.037785
608.000000	0.037943
607.000000	0.037934
606.000000	0.037910
605.000000	0.038049
604.000000	0.038127
603.000000	0.037916
602.000000	0.038057
601.000000	0.038105
600.000000	0.038125
599.000000	0.037985
598.000000	0.038267
597.000000	0.038042
596.000000	0.038023
595.000000	0.038035
594.000000	0.038124
593.000000	0.038154
592.000000	0.038107
591.000000	0.038122
590.000000	0.038196
589.000000	0.038184
588.000000	0.038168
587.000000	0.038232
586.000000	0.038370
585.000000	0.038089
584.000000	0.038180
583.000000	0.038337
582.000000	0.038265
581.000000	0.038194
580.000000	0.038439
579.000000	0.038289
578.000000	0.038205
577.000000	0.038306
576.000000	0.038425
575.000000	0.038404
574.000000	0.038364
573.000000	0.038289
572.000000	0.038313
571.000000	0.038386
570.000000	0.038443
569.000000	0.038497
568.000000	0.038574
567.000000	0.038465
566.000000	0.038366
565.000000	0.038624
564.000000	0.038533
563.000000	0.038575
562.000000	0.038672
561.000000	0.038591
560.000000	0.038538
559.000000	0.038574
558.000000	0.038830
557.000000	0.038666
556.000000	0.038740
555.000000	0.038783
554.000000	0.038774
553.000000	0.038724
552.000000	0.038740
551.000000	0.038841
550.000000	0.038849
549.000000	0.038823
548.000000	0.038810
547.000000	0.038908
546.000000	0.038948
545.000000	0.038936
544.000000	0.039017
543.000000	0.039094
542.000000	0.039019
541.000000	0.039007
540.000000	0.039151
539.000000	0.039228
538.000000	0.039182
537.000000	0.039211
536.000000	0.039313
535.000000	0.039268
534.000000	0.039404
533.000000	0.039545
532.000000	0.039555
531.000000	0.039493
530.000000	0.039594
529.000000	0.039685
528.000000	0.039708
527.000000	0.039771
526.000000	0.039902
525.000000	0.039984
524.000000	0.039973
523.000000	0.040022
522.000000	0.040173
521.000000	0.040277
520.000000	0.040322
519.000000	0.040308
518.000000	0.040438
517.000000	0.040546
516.000000	0.040619
515.000000	0.040813
514.000000	0.040814
513.000000	0.040799
512.000000	0.040845
511.000000	0.040975
510.000000	0.041039
509.000000	0.041070
508.000000	0.041162
507.000000	0.041233
506.000000	0.041250
505.000000	0.041316
504.000000	0.041430
503.000000	0.041525
502.000000	0.041559
501.000000	0.041623
500.000000	0.041699
499.000000	0.041703
498.000000	0.041704
497.000000	0.041880
496.000000	0.041996
495.000000	0.041923
494.000000	0.041973
493.000000	0.042162
492.000000	0.042178
491.000000	0.042202
490.000000	0.042347
489.000000	0.042401
488.000000	0.042436
487.000000	0.042526
486.000000	0.042634
485.000000	0.042689
484.000000	0.042652
483.000000	0.042687
482.000000	0.042838
481.000000	0.042884
480.000000	0.042929
479.000000	0.043041
478.000000	0.043128
477.000000	0.043171
476.000000	0.043267
475.000000	0.043443
474.000000	0.043507
473.000000	0.043498
472.000000	0.043615
471.000000	0.043738
470.000000	0.043789
469.000000	0.043829
468.000000	0.043965
467.000000	0.044095
466.000000	0.044161
465.000000	0.044298
464.000000	0.044479
463.000000	0.044534
462.000000	0.044674
461.000000	0.044810
460.000000	0.044964
459.000000	0.045040
458.000000	0.045191
457.000000	0.045394
456.000000	0.045545
455.000000	0.045593
454.000000	0.045736
453.000000	0.045981
452.000000	0.046092
451.000000	0.046254
450.000000	0.046422
449.000000	0.046593
448.000000	0.046707
447.000000	0.046866
446.000000	0.047089
445.000000	0.047292
444.000000	0.047392
443.000000	0.047573
442.000000	0.047796
441.000000	0.047965
440.000000	0.048138
439.000000	0.048454
438.000000	0.048687
437.000000	0.048827
436.000000	0.049059
435.000000	0.049242
434.000000	0.049500
433.000000	0.049756
432.000000	0.050007
431.000000	0.050320
430.000000	0.050445
429.000000	0.050566
428.000000	0.050934
427.000000	0.051167
426.000000	0.051355
425.000000	0.051669
424.000000	0.051945
423.000000	0.052113
422.000000	0.052348
421.000000	0.052668
420.000000	0.053011
419.000000	0.053168
418.000000	0.053385
417.000000	0.053760
416.000000	0.054023
415.000000	0.054215
414.000000	0.054511
413.000000	0.054941
412.000000	0.055100
411.000000	0.055288
410.000000	0.055717
409.000000	0.055961
408.000000	0.056223
407.000000	0.056417
406.000000	0.056862
405.000000	0.057066
404.000000	0.057284
403.000000	0.057698
402.000000	0.058075
401.000000	0.058284
400.000000	0.058469
399.000000	0.058838
398.000000	0.059285
397.000000	0.059497
396.000000	0.059759
395.000000	0.060171
394.000000	0.060582
393.000000	0.060786
392.000000	0.061201
391.000000	0.061585
390.000000	0.061919
389.000000	0.062185
388.000000	0.062659
387.000000	0.062995
386.000000	0.063349
385.000000	0.063739
384.000000	0.064301
383.000000	0.064545
382.000000	0.064965
381.000000	0.065464
380.000000	0.065917
379.000000	0.066269
378.000000	0.066588
377.000000	0.067078
376.000000	0.067630
375.000000	0.068093
374.000000	0.068635
373.000000	0.069170
372.000000	0.069585
371.000000	0.070152
370.000000	0.070766
369.000000	0.071323
368.000000	0.071840
367.000000	0.072413
366.000000	0.072991
365.000000	0.073459
364.000000	0.074116
363.000000	0.074834
362.000000	0.075406
361.000000	0.075888
360.000000	0.076576
359.000000	0.077309
358.000000	0.077892
357.000000	0.078545
356.000000	0.079232
355.000000	0.080059
354.000000	0.080569
353.000000	0.081193
352.000000	0.082026
351.000000	0.082715
350.000000	0.083366
349.000000	0.084241
348.000000	0.085021
347.000000	0.085579
346.000000	0.086284
345.000000	0.087234
344.000000	0.088004
343.000000	0.088756
342.000000	0.089455
341.000000	0.090409
340.000000	0.091247
339.000000	0.091985
338.000000	0.092854
337.000000	0.093807
336.000000	0.094631
335.000000	0.095508
334.000000	0.096461
333.000000	0.097392
332.000000	0.098272
331.000000	0.099178
330.000000	0.100231
329.000000	0.101301
328.000000	0.102130
327.000000	0.103233
326.000000	0.104312
325.000000	0.105277
324.000000	0.106235
323.000000	0.107427
322.000000	0.108609
321.000000	0.109702
320.000000	0.110758
319.000000	0.112027
318.000000	0.112156
317.000000	0.111323
316.000000	0.112393
315.000000	0.113656
314.000000	0.115042
313.000000	0.116312
312.000000	0.117524
311.000000	0.118732
310.000000	0.120075
309.000000	0.121441
308.000000	0.122849
307.000000	0.124286
306.000000	0.125754
305.000000	0.127146
304.000000	0.128638
303.000000	0.130271
302.000000	0.131826
301.000000	0.133319
300.000000	0.134920
299.000000	0.136651
298.000000	0.138358
297.000000	0.140048
296.000000	0.141835
295.000000	0.143661
294.000000	0.145485
293.000000	0.147320
292.000000	0.149329
291.000000	0.151337
290.000000	0.153268
289.000000	0.155390
288.000000	0.157552
287.000000	0.159552
286.000000	0.161610
285.000000	0.163845
284.000000	0.166039
283.000000	0.168109
282.000000	0.170271
281.000000	0.172413
280.000000	0.174432
279.000000	0.176442
278.000000	0.178704
277.000000	0.181047
276.000000	0.183130
275.000000	0.185232
274.000000	0.187569
273.000000	0.189853
272.000000	0.192079
271.000000	0.194300
270.000000	0.196490
269.000000	0.198563
268.000000	0.200600
267.000000	0.202793
266.000000	0.204986
265.000000	0.206992
264.000000	0.208975
263.000000	0.211001
262.000000	0.212950
261.000000	0.214859
260.000000	0.216814
259.000000	0.218826
258.000000	0.220607
257.000000	0.222254
256.000000	0.224152
255.000000	0.226095
254.000000	0.227792
253.000000	0.229665
252.000000	0.231653
251.000000	0.233506
250.000000	0.235461
249.000000	0.237646
248.000000	0.239958
247.000000	0.242166
246.000000	0.244537
245.000000	0.247290
244.000000	0.250157
243.000000	0.253050
242.000000	0.256174
241.000000	0.259646
240.000000	0.263156
239.000000	0.266884
238.000000	0.270823
237.000000	0.275095
236.000000	0.279500
235.000000	0.284166
234.000000	0.289348
233.000000	0.294761
232.000000	0.300250
231.000000	0.306293
230.000000	0.312698
229.000000	0.319328
228.000000	0.326359
227.000000	0.334052
226.000000	0.342406
225.000000	0.351093
224.000000	0.360569
223.000000	0.371089
222.000000	0.382555
221.000000	0.394496
220.000000	0.408276
219.000000	0.423622
218.000000	0.440542
217.000000	0.459645
216.000000	0.481588
215.000000	0.506348
214.000000	0.534588
213.000000	0.567233
212.000000	0.604613
211.000000	0.647554
210.000000	0.695988
209.000000	0.752169
208.000000	0.816739
207.000000	0.891576
206.000000	0.978930
205.000000	1.081913
204.000000	1.205460
203.000000	1.356445
202.000000	1.543735
201.000000	1.782873
200.000000	2.092339
