PE UV       SUBTECH     SPECTRUM    ASCII       PEDS        4.00        
   -1
KY6-000.Sample.Raw.asc
11/10/07
12:46:15.00
11/10/07
12:46:15.00
Hermanni Kaartokallio

200.000000
1
Lambda 650
650N8121101
PerkinElmer UV WinLab 6.0.2.0723 / 1.61.00 Lambda 650

0
0
2
0
0
UV/VIS
1
1
1
uv/vis/nir detector
0
0
0
0
Fix
 
0
0.24
0
0
0
 
 
 
0
 
0
319.2
0
Front
100
 
 
 
0
0
0
 
0
 
 
 
0
 
 
0
0
0
0
0
 
 
 
 
0
0
#HDR
-1
-1
#GR
nm
A
1.0
0.0
800.000000
-1.000000
601
8
4.079608
0.042671
#DATA
800.000000	0.047050
799.000000	0.047109
798.000000	0.047125
797.000000	0.047005
796.000000	0.047233
795.000000	0.047386
794.000000	0.047377
793.000000	0.047385
792.000000	0.047513
791.000000	0.047680
790.000000	0.047407
789.000000	0.047736
788.000000	0.047684
787.000000	0.047790
786.000000	0.047891
785.000000	0.048117
784.000000	0.048193
783.000000	0.048084
782.000000	0.048196
781.000000	0.048330
780.000000	0.048395
779.000000	0.048301
778.000000	0.048537
777.000000	0.048635
776.000000	0.048620
775.000000	0.048686
774.000000	0.048845
773.000000	0.048806
772.000000	0.048765
771.000000	0.048972
770.000000	0.049111
769.000000	0.049125
768.000000	0.049085
767.000000	0.049216
766.000000	0.049241
765.000000	0.049307
764.000000	0.049304
763.000000	0.049411
762.000000	0.049448
761.000000	0.049479
760.000000	0.049610
759.000000	0.049696
758.000000	0.049730
757.000000	0.049799
756.000000	0.049856
755.000000	0.049939
754.000000	0.049955
753.000000	0.049947
752.000000	0.050084
751.000000	0.050150
750.000000	0.049999
749.000000	0.050147
748.000000	0.050251
747.000000	0.050207
746.000000	0.050269
745.000000	0.050360
744.000000	0.050340
743.000000	0.050234
742.000000	0.050306
741.000000	0.050372
740.000000	0.050299
739.000000	0.050149
738.000000	0.050061
737.000000	0.049979
736.000000	0.049651
735.000000	0.049385
734.000000	0.049178
733.000000	0.048716
732.000000	0.048193
731.000000	0.047748
730.000000	0.047357
729.000000	0.046939
728.000000	0.046439
727.000000	0.046121
726.000000	0.045854
725.000000	0.045602
724.000000	0.045375
723.000000	0.045238
722.000000	0.045037
721.000000	0.044786
720.000000	0.044629
719.000000	0.044501
718.000000	0.044274
717.000000	0.044148
716.000000	0.044029
715.000000	0.043830
714.000000	0.043601
713.000000	0.043477
712.000000	0.043453
711.000000	0.043364
710.000000	0.043275
709.000000	0.043224
708.000000	0.043112
707.000000	0.042980
706.000000	0.042919
705.000000	0.042855
704.000000	0.042763
703.000000	0.042673
702.000000	0.042710
701.000000	0.042794
700.000000	0.042809
699.000000	0.042838
698.000000	0.042801
697.000000	0.042740
696.000000	0.042671
695.000000	0.042682
694.000000	0.042776
693.000000	0.042772
692.000000	0.042782
691.000000	0.042855
690.000000	0.042863
689.000000	0.042834
688.000000	0.042862
687.000000	0.042936
686.000000	0.042925
685.000000	0.042939
684.000000	0.043051
683.000000	0.043112
682.000000	0.043113
681.000000	0.043229
680.000000	0.043373
679.000000	0.043400
678.000000	0.043419
677.000000	0.043478
676.000000	0.043527
675.000000	0.043475
674.000000	0.043559
673.000000	0.043764
672.000000	0.043824
671.000000	0.043860
670.000000	0.043906
669.000000	0.044005
668.000000	0.044045
667.000000	0.044104
666.000000	0.044249
665.000000	0.044305
664.000000	0.044169
663.000000	0.044197
662.000000	0.044375
661.000000	0.044356
660.000000	0.044371
659.000000	0.044389
658.000000	0.044377
657.000000	0.044599
656.000000	0.044634
655.000000	0.044697
654.000000	0.044763
653.000000	0.044591
652.000000	0.044586
651.000000	0.044681
650.000000	0.044743
649.000000	0.044779
648.000000	0.044883
647.000000	0.045077
646.000000	0.045098
645.000000	0.045145
644.000000	0.045290
643.000000	0.045363
642.000000	0.045438
641.000000	0.045574
640.000000	0.045713
639.000000	0.045753
638.000000	0.045848
637.000000	0.045961
636.000000	0.046057
635.000000	0.046113
634.000000	0.046133
633.000000	0.046314
632.000000	0.046480
631.000000	0.046581
630.000000	0.046693
629.000000	0.046780
628.000000	0.046790
627.000000	0.046993
626.000000	0.047155
625.000000	0.047264
624.000000	0.047364
623.000000	0.047464
622.000000	0.047545
621.000000	0.047700
620.000000	0.047757
619.000000	0.048023
618.000000	0.048083
617.000000	0.048113
616.000000	0.048289
615.000000	0.048503
614.000000	0.048610
613.000000	0.048639
612.000000	0.048931
611.000000	0.049100
610.000000	0.049105
609.000000	0.049194
608.000000	0.049449
607.000000	0.049628
606.000000	0.049643
605.000000	0.049853
604.000000	0.050000
603.000000	0.050088
602.000000	0.050157
601.000000	0.050363
600.000000	0.050466
599.000000	0.050464
598.000000	0.050582
597.000000	0.050769
596.000000	0.050846
595.000000	0.050853
594.000000	0.051056
593.000000	0.051284
592.000000	0.051355
591.000000	0.051395
590.000000	0.051648
589.000000	0.051696
588.000000	0.051863
587.000000	0.051969
586.000000	0.052164
585.000000	0.052164
584.000000	0.052353
583.000000	0.052515
582.000000	0.052644
581.000000	0.052736
580.000000	0.052952
579.000000	0.053126
578.000000	0.053264
577.000000	0.053401
576.000000	0.053567
575.000000	0.053838
574.000000	0.053887
573.000000	0.053846
572.000000	0.054162
571.000000	0.054379
570.000000	0.054499
569.000000	0.054542
568.000000	0.054814
567.000000	0.054947
566.000000	0.055109
565.000000	0.055350
564.000000	0.055489
563.000000	0.055715
562.000000	0.055767
561.000000	0.055970
560.000000	0.056072
559.000000	0.056230
558.000000	0.056491
557.000000	0.056677
556.000000	0.056897
555.000000	0.057040
554.000000	0.057285
553.000000	0.057503
552.000000	0.057624
551.000000	0.057824
550.000000	0.058145
549.000000	0.058240
548.000000	0.058351
547.000000	0.058674
546.000000	0.058948
545.000000	0.059122
544.000000	0.059308
543.000000	0.059657
542.000000	0.059818
541.000000	0.059932
540.000000	0.060256
539.000000	0.060544
538.000000	0.060722
537.000000	0.060884
536.000000	0.061266
535.000000	0.061525
534.000000	0.061802
533.000000	0.062080
532.000000	0.062368
531.000000	0.062550
530.000000	0.062769
529.000000	0.063144
528.000000	0.063446
527.000000	0.063684
526.000000	0.064047
525.000000	0.064390
524.000000	0.064620
523.000000	0.064902
522.000000	0.065254
521.000000	0.065672
520.000000	0.066015
519.000000	0.066223
518.000000	0.066599
517.000000	0.067024
516.000000	0.067382
515.000000	0.067745
514.000000	0.068045
513.000000	0.068322
512.000000	0.068556
511.000000	0.068990
510.000000	0.069447
509.000000	0.069738
508.000000	0.070102
507.000000	0.070509
506.000000	0.070839
505.000000	0.071164
504.000000	0.071566
503.000000	0.072047
502.000000	0.072399
501.000000	0.072712
500.000000	0.073086
499.000000	0.073485
498.000000	0.073818
497.000000	0.074278
496.000000	0.074763
495.000000	0.075079
494.000000	0.075470
493.000000	0.076005
492.000000	0.076445
491.000000	0.076812
490.000000	0.077245
489.000000	0.077735
488.000000	0.078203
487.000000	0.078650
486.000000	0.079121
485.000000	0.079617
484.000000	0.080056
483.000000	0.080496
482.000000	0.081073
481.000000	0.081617
480.000000	0.082111
479.000000	0.082616
478.000000	0.083159
477.000000	0.083703
476.000000	0.084260
475.000000	0.084867
474.000000	0.085441
473.000000	0.086028
472.000000	0.086636
471.000000	0.087208
470.000000	0.087829
469.000000	0.088482
468.000000	0.089179
467.000000	0.089937
466.000000	0.090584
465.000000	0.091177
464.000000	0.091932
463.000000	0.092711
462.000000	0.093450
461.000000	0.094161
460.000000	0.094972
459.000000	0.095719
458.000000	0.096493
457.000000	0.097314
456.000000	0.098213
455.000000	0.099056
454.000000	0.099832
453.000000	0.100781
452.000000	0.101751
451.000000	0.102606
450.000000	0.103535
449.000000	0.104545
448.000000	0.105535
447.000000	0.106436
446.000000	0.107535
445.000000	0.108660
444.000000	0.109644
443.000000	0.110633
442.000000	0.111805
441.000000	0.112928
440.000000	0.113997
439.000000	0.115235
438.000000	0.116527
437.000000	0.117728
436.000000	0.118904
435.000000	0.120116
434.000000	0.121478
433.000000	0.122863
432.000000	0.124259
431.000000	0.125695
430.000000	0.127135
429.000000	0.128498
428.000000	0.129954
427.000000	0.131511
426.000000	0.132999
425.000000	0.134586
424.000000	0.136180
423.000000	0.137776
422.000000	0.139434
421.000000	0.141114
420.000000	0.142932
419.000000	0.144632
418.000000	0.146422
417.000000	0.148142
416.000000	0.150188
415.000000	0.151995
414.000000	0.153813
413.000000	0.155908
412.000000	0.157856
411.000000	0.159837
410.000000	0.161911
409.000000	0.164078
408.000000	0.166246
407.000000	0.168256
406.000000	0.170534
405.000000	0.172800
404.000000	0.175009
403.000000	0.177459
402.000000	0.179958
401.000000	0.182336
400.000000	0.184766
399.000000	0.187264
398.000000	0.189943
397.000000	0.192553
396.000000	0.195129
395.000000	0.197879
394.000000	0.200758
393.000000	0.203516
392.000000	0.206236
391.000000	0.209320
390.000000	0.212287
389.000000	0.215233
388.000000	0.218300
387.000000	0.221547
386.000000	0.224716
385.000000	0.227837
384.000000	0.231380
383.000000	0.234642
382.000000	0.238072
381.000000	0.241454
380.000000	0.245182
379.000000	0.248752
378.000000	0.252805
377.000000	0.256483
376.000000	0.260391
375.000000	0.264243
374.000000	0.268154
373.000000	0.272218
372.000000	0.276324
371.000000	0.280300
370.000000	0.284655
369.000000	0.289002
368.000000	0.293220
367.000000	0.297639
366.000000	0.302067
365.000000	0.306565
364.000000	0.311294
363.000000	0.315990
362.000000	0.320851
361.000000	0.325592
360.000000	0.330378
359.000000	0.335376
358.000000	0.340444
357.000000	0.345430
356.000000	0.350627
355.000000	0.356013
354.000000	0.361028
353.000000	0.366074
352.000000	0.371559
351.000000	0.377075
350.000000	0.382558
349.000000	0.388198
348.000000	0.393808
347.000000	0.399426
346.000000	0.405221
345.000000	0.411170
344.000000	0.417083
343.000000	0.423186
342.000000	0.429130
341.000000	0.435274
340.000000	0.441608
339.000000	0.447753
338.000000	0.454031
337.000000	0.460486
336.000000	0.466922
335.000000	0.473458
334.000000	0.480216
333.000000	0.487046
332.000000	0.493813
331.000000	0.500562
330.000000	0.507582
329.000000	0.514693
328.000000	0.521670
327.000000	0.528912
326.000000	0.536298
325.000000	0.543571
324.000000	0.550988
323.000000	0.558548
322.000000	0.566225
321.000000	0.573997
320.000000	0.581738
319.000000	0.589630
318.000000	0.596761
317.000000	0.603267
316.000000	0.611083
315.000000	0.619007
314.000000	0.627166
313.000000	0.635447
312.000000	0.643782
311.000000	0.652154
310.000000	0.660660
309.000000	0.669360
308.000000	0.677905
307.000000	0.686376
306.000000	0.695182
305.000000	0.704103
304.000000	0.712971
303.000000	0.722014
302.000000	0.731148
301.000000	0.740346
300.000000	0.749575
299.000000	0.758857
298.000000	0.768373
297.000000	0.777876
296.000000	0.787546
295.000000	0.797428
294.000000	0.807375
293.000000	0.817456
292.000000	0.827767
291.000000	0.838412
290.000000	0.848929
289.000000	0.859646
288.000000	0.870764
287.000000	0.881873
286.000000	0.893010
285.000000	0.904389
284.000000	0.915819
283.000000	0.927218
282.000000	0.938774
281.000000	0.950448
280.000000	0.962198
279.000000	0.973958
278.000000	0.985922
277.000000	0.998078
276.000000	1.010278
275.000000	1.022487
274.000000	1.034799
273.000000	1.047275
272.000000	1.059679
271.000000	1.071952
270.000000	1.084154
269.000000	1.096207
268.000000	1.107957
267.000000	1.119709
266.000000	1.131505
265.000000	1.142970
264.000000	1.153877
263.000000	1.164713
262.000000	1.175533
261.000000	1.186195
260.000000	1.196459
259.000000	1.206637
258.000000	1.216609
257.000000	1.226213
256.000000	1.236096
255.000000	1.246267
254.000000	1.256470
253.000000	1.266823
252.000000	1.277578
251.000000	1.288696
250.000000	1.300263
249.000000	1.312240
248.000000	1.325230
247.000000	1.338937
246.000000	1.353241
245.000000	1.368584
244.000000	1.385228
243.000000	1.402967
242.000000	1.421587
241.000000	1.441596
240.000000	1.462520
239.000000	1.484608
238.000000	1.508369
237.000000	1.533764
236.000000	1.560597
235.000000	1.588977
234.000000	1.619895
233.000000	1.653136
232.000000	1.688794
231.000000	1.727716
230.000000	1.768859
229.000000	1.812885
228.000000	1.860022
227.000000	1.911218
226.000000	1.967534
225.000000	2.027730
224.000000	2.091846
223.000000	2.161430
222.000000	2.235442
221.000000	2.313428
220.000000	2.395466
219.000000	2.483810
218.000000	2.575513
217.000000	2.666615
216.000000	2.762620
215.000000	2.858812
214.000000	2.958880
213.000000	3.060855
212.000000	3.158427
211.000000	3.266140
210.000000	3.361535
209.000000	3.440198
208.000000	3.529771
207.000000	3.632509
206.000000	3.707521
205.000000	3.778417
204.000000	3.866246
203.000000	3.912604
202.000000	3.998737
201.000000	4.037440
200.000000	4.079608
