PE UV       SUBTECH     SPECTRUM    ASCII       PEDS        4.00        
   -1
KY6-02A.Sample.Raw.asc
11/10/07
13:05:05.00
11/10/07
13:05:05.00
Hermanni Kaartokallio

200.000000
1
Lambda 650
650N8121101
PerkinElmer UV WinLab 6.0.2.0723 / 1.61.00 Lambda 650

0
0
2
0
0
UV/VIS
1
1
1
uv/vis/nir detector
0
0
0
0
Fix
 
0
0.24
0
0
0
 
 
 
0
 
0
319.2
0
Front
100
 
 
 
0
0
0
 
0
 
 
 
0
 
 
0
0
0
0
0
 
 
 
 
0
0
#HDR
-1
-1
#GR
nm
A
1.0
0.0
800.000000
-1.000000
601
8
3.880883
0.041827
#DATA
800.000000	0.046541
799.000000	0.046512
798.000000	0.046586
797.000000	0.046654
796.000000	0.046824
795.000000	0.046970
794.000000	0.046963
793.000000	0.046989
792.000000	0.047029
791.000000	0.047203
790.000000	0.047334
789.000000	0.047404
788.000000	0.047389
787.000000	0.047588
786.000000	0.047596
785.000000	0.047771
784.000000	0.047854
783.000000	0.047829
782.000000	0.047813
781.000000	0.048042
780.000000	0.048048
779.000000	0.048076
778.000000	0.048181
777.000000	0.048279
776.000000	0.048257
775.000000	0.048373
774.000000	0.048335
773.000000	0.048403
772.000000	0.048469
771.000000	0.048508
770.000000	0.048549
769.000000	0.048604
768.000000	0.048603
767.000000	0.048714
766.000000	0.048840
765.000000	0.048777
764.000000	0.048817
763.000000	0.048864
762.000000	0.048875
761.000000	0.048965
760.000000	0.049079
759.000000	0.049061
758.000000	0.049184
757.000000	0.049252
756.000000	0.049176
755.000000	0.049357
754.000000	0.049429
753.000000	0.049356
752.000000	0.049381
751.000000	0.049490
750.000000	0.049457
749.000000	0.049494
748.000000	0.049638
747.000000	0.049619
746.000000	0.049631
745.000000	0.049673
744.000000	0.049613
743.000000	0.049550
742.000000	0.049575
741.000000	0.049660
740.000000	0.049563
739.000000	0.049471
738.000000	0.049282
737.000000	0.049181
736.000000	0.048975
735.000000	0.048676
734.000000	0.048325
733.000000	0.047858
732.000000	0.047418
731.000000	0.046899
730.000000	0.046454
729.000000	0.046112
728.000000	0.045689
727.000000	0.045294
726.000000	0.045010
725.000000	0.044834
724.000000	0.044553
723.000000	0.044348
722.000000	0.044168
721.000000	0.043987
720.000000	0.043801
719.000000	0.043654
718.000000	0.043461
717.000000	0.043361
716.000000	0.043189
715.000000	0.042943
714.000000	0.042763
713.000000	0.042687
712.000000	0.042572
711.000000	0.042515
710.000000	0.042484
709.000000	0.042336
708.000000	0.042232
707.000000	0.042174
706.000000	0.042064
705.000000	0.041932
704.000000	0.041878
703.000000	0.041895
702.000000	0.041904
701.000000	0.041905
700.000000	0.041953
699.000000	0.041988
698.000000	0.041901
697.000000	0.041871
696.000000	0.041830
695.000000	0.041827
694.000000	0.041886
693.000000	0.041891
692.000000	0.041905
691.000000	0.041920
690.000000	0.041944
689.000000	0.041965
688.000000	0.042006
687.000000	0.042064
686.000000	0.042134
685.000000	0.042198
684.000000	0.042184
683.000000	0.042232
682.000000	0.042273
681.000000	0.042394
680.000000	0.042524
679.000000	0.042596
678.000000	0.042601
677.000000	0.042558
676.000000	0.042574
675.000000	0.042594
674.000000	0.042709
673.000000	0.042873
672.000000	0.042936
671.000000	0.043001
670.000000	0.042995
669.000000	0.043052
668.000000	0.043160
667.000000	0.043230
666.000000	0.043274
665.000000	0.043377
664.000000	0.043286
663.000000	0.043242
662.000000	0.043354
661.000000	0.043351
660.000000	0.043453
659.000000	0.043425
658.000000	0.043471
657.000000	0.043689
656.000000	0.043662
655.000000	0.043700
654.000000	0.043690
653.000000	0.043586
652.000000	0.043616
651.000000	0.043658
650.000000	0.043746
649.000000	0.043809
648.000000	0.043868
647.000000	0.043955
646.000000	0.044055
645.000000	0.044163
644.000000	0.044211
643.000000	0.044339
642.000000	0.044446
641.000000	0.044554
640.000000	0.044605
639.000000	0.044676
638.000000	0.044803
637.000000	0.044861
636.000000	0.044927
635.000000	0.045015
634.000000	0.045074
633.000000	0.045207
632.000000	0.045397
631.000000	0.045555
630.000000	0.045615
629.000000	0.045634
628.000000	0.045740
627.000000	0.045871
626.000000	0.045994
625.000000	0.046112
624.000000	0.046179
623.000000	0.046259
622.000000	0.046357
621.000000	0.046549
620.000000	0.046633
619.000000	0.046825
618.000000	0.046895
617.000000	0.046968
616.000000	0.047099
615.000000	0.047208
614.000000	0.047389
613.000000	0.047533
612.000000	0.047631
611.000000	0.047883
610.000000	0.047900
609.000000	0.048066
608.000000	0.048217
607.000000	0.048344
606.000000	0.048460
605.000000	0.048609
604.000000	0.048690
603.000000	0.048813
602.000000	0.049009
601.000000	0.049129
600.000000	0.049156
599.000000	0.049286
598.000000	0.049322
597.000000	0.049458
596.000000	0.049513
595.000000	0.049584
594.000000	0.049793
593.000000	0.049920
592.000000	0.050017
591.000000	0.050120
590.000000	0.050263
589.000000	0.050347
588.000000	0.050516
587.000000	0.050647
586.000000	0.050726
585.000000	0.050812
584.000000	0.051077
583.000000	0.051164
582.000000	0.051219
581.000000	0.051390
580.000000	0.051605
579.000000	0.051673
578.000000	0.051809
577.000000	0.051974
576.000000	0.052106
575.000000	0.052261
574.000000	0.052369
573.000000	0.052408
572.000000	0.052620
571.000000	0.052805
570.000000	0.053018
569.000000	0.053141
568.000000	0.053283
567.000000	0.053399
566.000000	0.053580
565.000000	0.053872
564.000000	0.053964
563.000000	0.054139
562.000000	0.054280
561.000000	0.054405
560.000000	0.054492
559.000000	0.054687
558.000000	0.054923
557.000000	0.055043
556.000000	0.055314
555.000000	0.055470
554.000000	0.055639
553.000000	0.055906
552.000000	0.056019
551.000000	0.056222
550.000000	0.056334
549.000000	0.056599
548.000000	0.056771
547.000000	0.056980
546.000000	0.057245
545.000000	0.057444
544.000000	0.057626
543.000000	0.057796
542.000000	0.057980
541.000000	0.058252
540.000000	0.058518
539.000000	0.058747
538.000000	0.059016
537.000000	0.059211
536.000000	0.059440
535.000000	0.059714
534.000000	0.060007
533.000000	0.060288
532.000000	0.060516
531.000000	0.060743
530.000000	0.061028
529.000000	0.061331
528.000000	0.061626
527.000000	0.061904
526.000000	0.062181
525.000000	0.062515
524.000000	0.062760
523.000000	0.063071
522.000000	0.063398
521.000000	0.063703
520.000000	0.064024
519.000000	0.064302
518.000000	0.064646
517.000000	0.065018
516.000000	0.065391
515.000000	0.065729
514.000000	0.065958
513.000000	0.066266
512.000000	0.066598
511.000000	0.066959
510.000000	0.067318
509.000000	0.067706
508.000000	0.068041
507.000000	0.068338
506.000000	0.068653
505.000000	0.069026
504.000000	0.069400
503.000000	0.069777
502.000000	0.070143
501.000000	0.070494
500.000000	0.070817
499.000000	0.071136
498.000000	0.071515
497.000000	0.071976
496.000000	0.072391
495.000000	0.072711
494.000000	0.073151
493.000000	0.073616
492.000000	0.073959
491.000000	0.074368
490.000000	0.074856
489.000000	0.075239
488.000000	0.075656
487.000000	0.076164
486.000000	0.076614
485.000000	0.077021
484.000000	0.077458
483.000000	0.077926
482.000000	0.078458
481.000000	0.078914
480.000000	0.079432
479.000000	0.079940
478.000000	0.080405
477.000000	0.080927
476.000000	0.081496
475.000000	0.082045
474.000000	0.082611
473.000000	0.083173
472.000000	0.083790
471.000000	0.084312
470.000000	0.084821
469.000000	0.085479
468.000000	0.086138
467.000000	0.086788
466.000000	0.087423
465.000000	0.088115
464.000000	0.088769
463.000000	0.089436
462.000000	0.090200
461.000000	0.090912
460.000000	0.091603
459.000000	0.092340
458.000000	0.093165
457.000000	0.093969
456.000000	0.094723
455.000000	0.095475
454.000000	0.096347
453.000000	0.097173
452.000000	0.098007
451.000000	0.098855
450.000000	0.099746
449.000000	0.100716
448.000000	0.101665
447.000000	0.102549
446.000000	0.103551
445.000000	0.104584
444.000000	0.105550
443.000000	0.106577
442.000000	0.107603
441.000000	0.108543
440.000000	0.109675
439.000000	0.110877
438.000000	0.112120
437.000000	0.113231
436.000000	0.114434
435.000000	0.115537
434.000000	0.116752
433.000000	0.118037
432.000000	0.119329
431.000000	0.120679
430.000000	0.121963
429.000000	0.123363
428.000000	0.124693
427.000000	0.126099
426.000000	0.127550
425.000000	0.129028
424.000000	0.130431
423.000000	0.131846
422.000000	0.133500
421.000000	0.135138
420.000000	0.136686
419.000000	0.138324
418.000000	0.139957
417.000000	0.141518
416.000000	0.143260
415.000000	0.145103
414.000000	0.146832
413.000000	0.148623
412.000000	0.150414
411.000000	0.152275
410.000000	0.154290
409.000000	0.156108
408.000000	0.158136
407.000000	0.160101
406.000000	0.162179
405.000000	0.164134
404.000000	0.166135
403.000000	0.168493
402.000000	0.170646
401.000000	0.172810
400.000000	0.175128
399.000000	0.177468
398.000000	0.179775
397.000000	0.182142
396.000000	0.184610
395.000000	0.187066
394.000000	0.189687
393.000000	0.192144
392.000000	0.194787
391.000000	0.197392
390.000000	0.200137
389.000000	0.202912
388.000000	0.205692
387.000000	0.208436
386.000000	0.211604
385.000000	0.214466
384.000000	0.217499
383.000000	0.220492
382.000000	0.223615
381.000000	0.226726
380.000000	0.230017
379.000000	0.233351
378.000000	0.236960
377.000000	0.240284
376.000000	0.243847
375.000000	0.247423
374.000000	0.250977
373.000000	0.254729
372.000000	0.258386
371.000000	0.262110
370.000000	0.265996
369.000000	0.269966
368.000000	0.273907
367.000000	0.277916
366.000000	0.281962
365.000000	0.286034
364.000000	0.290396
363.000000	0.294800
362.000000	0.299120
361.000000	0.303429
360.000000	0.307982
359.000000	0.312517
358.000000	0.317105
357.000000	0.321802
356.000000	0.326502
355.000000	0.331379
354.000000	0.336223
353.000000	0.341087
352.000000	0.346156
351.000000	0.351174
350.000000	0.356325
349.000000	0.361324
348.000000	0.366246
347.000000	0.371373
346.000000	0.376807
345.000000	0.382286
344.000000	0.387656
343.000000	0.393189
342.000000	0.398745
341.000000	0.404449
340.000000	0.410249
339.000000	0.416072
338.000000	0.421898
337.000000	0.427747
336.000000	0.433659
335.000000	0.439739
334.000000	0.445907
333.000000	0.452063
332.000000	0.458347
331.000000	0.464662
330.000000	0.471066
329.000000	0.477504
328.000000	0.484009
327.000000	0.490637
326.000000	0.497207
325.000000	0.503980
324.000000	0.510805
323.000000	0.517767
322.000000	0.524798
321.000000	0.531806
320.000000	0.538817
319.000000	0.546009
318.000000	0.552424
317.000000	0.558238
316.000000	0.565479
315.000000	0.573083
314.000000	0.580497
313.000000	0.587999
312.000000	0.595619
311.000000	0.603406
310.000000	0.610986
309.000000	0.618489
308.000000	0.626427
307.000000	0.634336
306.000000	0.642335
305.000000	0.650455
304.000000	0.658739
303.000000	0.667095
302.000000	0.675507
301.000000	0.684009
300.000000	0.692629
299.000000	0.701339
298.000000	0.710017
297.000000	0.718908
296.000000	0.727907
295.000000	0.737011
294.000000	0.746247
293.000000	0.755659
292.000000	0.765277
291.000000	0.775048
290.000000	0.784864
289.000000	0.794940
288.000000	0.805033
287.000000	0.815203
286.000000	0.825614
285.000000	0.836041
284.000000	0.846478
283.000000	0.857114
282.000000	0.867777
281.000000	0.878284
280.000000	0.888904
279.000000	0.899653
278.000000	0.910522
277.000000	0.921301
276.000000	0.932101
275.000000	0.943104
274.000000	0.954214
273.000000	0.965334
272.000000	0.976592
271.000000	0.987771
270.000000	0.998656
269.000000	1.009342
268.000000	1.019907
267.000000	1.030610
266.000000	1.041239
265.000000	1.051598
264.000000	1.061711
263.000000	1.071736
262.000000	1.081553
261.000000	1.091323
260.000000	1.100802
259.000000	1.110093
258.000000	1.119300
257.000000	1.128554
256.000000	1.138057
255.000000	1.147375
254.000000	1.156772
253.000000	1.166435
252.000000	1.176390
251.000000	1.186618
250.000000	1.197327
249.000000	1.208631
248.000000	1.220289
247.000000	1.232644
246.000000	1.245981
245.000000	1.259972
244.000000	1.274965
243.000000	1.291025
242.000000	1.308153
241.000000	1.326230
240.000000	1.345430
239.000000	1.365720
238.000000	1.387285
237.000000	1.410185
236.000000	1.434731
235.000000	1.461246
234.000000	1.489650
233.000000	1.520252
232.000000	1.552892
231.000000	1.588668
230.000000	1.626866
229.000000	1.668074
228.000000	1.712685
227.000000	1.761045
226.000000	1.813664
225.000000	1.870111
224.000000	1.931957
223.000000	1.998707
222.000000	2.069161
221.000000	2.143819
220.000000	2.223124
219.000000	2.306507
218.000000	2.391881
217.000000	2.482567
216.000000	2.574817
215.000000	2.669444
214.000000	2.764143
213.000000	2.857856
212.000000	2.952826
211.000000	3.043449
210.000000	3.134058
209.000000	3.226457
208.000000	3.300592
207.000000	3.383118
206.000000	3.469795
205.000000	3.557656
204.000000	3.608769
203.000000	3.660204
202.000000	3.737535
201.000000	3.810739
200.000000	3.880883
