PE UV       SUBTECH     SPECTRUM    ASCII       PEDS        4.00        
   -1
KY6-04B.Sample.Raw.asc
11/10/07
13:31:28.00
11/10/07
13:31:28.00
Hermanni Kaartokallio

200.000000
1
Lambda 650
650N8121101
PerkinElmer UV WinLab 6.0.2.0723 / 1.61.00 Lambda 650

0
0
2
0
0
UV/VIS
1
1
1
uv/vis/nir detector
0
0
0
0
Fix
 
0
0.24
0
0
0
 
 
 
0
 
0
319.2
0
Front
100
 
 
 
0
0
0
 
0
 
 
 
0
 
 
0
0
0
0
0
 
 
 
 
0
0
#HDR
-1
-1
#GR
nm
A
1.0
0.0
800.000000
-1.000000
601
8
2.106252
0.036781
#DATA
800.000000	0.044663
799.000000	0.044647
798.000000	0.044707
797.000000	0.044718
796.000000	0.044764
795.000000	0.044861
794.000000	0.044957
793.000000	0.044990
792.000000	0.045008
791.000000	0.045034
790.000000	0.045219
789.000000	0.045229
788.000000	0.045208
787.000000	0.045333
786.000000	0.045394
785.000000	0.045523
784.000000	0.045493
783.000000	0.045410
782.000000	0.045572
781.000000	0.045757
780.000000	0.045667
779.000000	0.045601
778.000000	0.045764
777.000000	0.045837
776.000000	0.045792
775.000000	0.045826
774.000000	0.045964
773.000000	0.045918
772.000000	0.045909
771.000000	0.046057
770.000000	0.046096
769.000000	0.046019
768.000000	0.046090
767.000000	0.046225
766.000000	0.046177
765.000000	0.046172
764.000000	0.046224
763.000000	0.046264
762.000000	0.046274
761.000000	0.046315
760.000000	0.046471
759.000000	0.046399
758.000000	0.046441
757.000000	0.046520
756.000000	0.046605
755.000000	0.046600
754.000000	0.046568
753.000000	0.046661
752.000000	0.046713
751.000000	0.046653
750.000000	0.046664
749.000000	0.046756
748.000000	0.046783
747.000000	0.046735
746.000000	0.046820
745.000000	0.046842
744.000000	0.046714
743.000000	0.046637
742.000000	0.046722
741.000000	0.046707
740.000000	0.046575
739.000000	0.046519
738.000000	0.046357
737.000000	0.046115
736.000000	0.045858
735.000000	0.045629
734.000000	0.045232
733.000000	0.044689
732.000000	0.044196
731.000000	0.043730
730.000000	0.043216
729.000000	0.042787
728.000000	0.042397
727.000000	0.042074
726.000000	0.041674
725.000000	0.041365
724.000000	0.041206
723.000000	0.040962
722.000000	0.040688
721.000000	0.040487
720.000000	0.040372
719.000000	0.040134
718.000000	0.039821
717.000000	0.039713
716.000000	0.039551
715.000000	0.039218
714.000000	0.038943
713.000000	0.038811
712.000000	0.038738
711.000000	0.038660
710.000000	0.038543
709.000000	0.038428
708.000000	0.038269
707.000000	0.038138
706.000000	0.038099
705.000000	0.037928
704.000000	0.037732
703.000000	0.037699
702.000000	0.037745
701.000000	0.037674
700.000000	0.037668
699.000000	0.037726
698.000000	0.037619
697.000000	0.037491
696.000000	0.037389
695.000000	0.037393
694.000000	0.037391
693.000000	0.037294
692.000000	0.037325
691.000000	0.037353
690.000000	0.037275
689.000000	0.037254
688.000000	0.037288
687.000000	0.037246
686.000000	0.037198
685.000000	0.037226
684.000000	0.037203
683.000000	0.037213
682.000000	0.037209
681.000000	0.037310
680.000000	0.037383
679.000000	0.037351
678.000000	0.037320
677.000000	0.037340
676.000000	0.037301
675.000000	0.037240
674.000000	0.037334
673.000000	0.037443
672.000000	0.037441
671.000000	0.037472
670.000000	0.037439
669.000000	0.037410
668.000000	0.037353
667.000000	0.037368
666.000000	0.037385
665.000000	0.037391
664.000000	0.037288
663.000000	0.037289
662.000000	0.037304
661.000000	0.037234
660.000000	0.037268
659.000000	0.037193
658.000000	0.037104
657.000000	0.037179
656.000000	0.037107
655.000000	0.037099
654.000000	0.037060
653.000000	0.036861
652.000000	0.036877
651.000000	0.036793
650.000000	0.036781
649.000000	0.036855
648.000000	0.036892
647.000000	0.036912
646.000000	0.036887
645.000000	0.036914
644.000000	0.036966
643.000000	0.036906
642.000000	0.036933
641.000000	0.036986
640.000000	0.036952
639.000000	0.036898
638.000000	0.036988
637.000000	0.037025
636.000000	0.036944
635.000000	0.036961
634.000000	0.037010
633.000000	0.036974
632.000000	0.037034
631.000000	0.037136
630.000000	0.037195
629.000000	0.037075
628.000000	0.037012
627.000000	0.037110
626.000000	0.037229
625.000000	0.037153
624.000000	0.037176
623.000000	0.037210
622.000000	0.037263
621.000000	0.037237
620.000000	0.037333
619.000000	0.037407
618.000000	0.037385
617.000000	0.037337
616.000000	0.037492
615.000000	0.037582
614.000000	0.037511
613.000000	0.037506
612.000000	0.037675
611.000000	0.037737
610.000000	0.037651
609.000000	0.037696
608.000000	0.037871
607.000000	0.037824
606.000000	0.037794
605.000000	0.037951
604.000000	0.037944
603.000000	0.037923
602.000000	0.038014
601.000000	0.038133
600.000000	0.038086
599.000000	0.038003
598.000000	0.038010
597.000000	0.038108
596.000000	0.038074
595.000000	0.037974
594.000000	0.038152
593.000000	0.038182
592.000000	0.038047
591.000000	0.038140
590.000000	0.038217
589.000000	0.038220
588.000000	0.038157
587.000000	0.038254
586.000000	0.038317
585.000000	0.038175
584.000000	0.038289
583.000000	0.038368
582.000000	0.038332
581.000000	0.038293
580.000000	0.038444
579.000000	0.038477
578.000000	0.038372
577.000000	0.038337
576.000000	0.038498
575.000000	0.038543
574.000000	0.038518
573.000000	0.038388
572.000000	0.038519
571.000000	0.038554
570.000000	0.038479
569.000000	0.038496
568.000000	0.038586
567.000000	0.038642
566.000000	0.038663
565.000000	0.038787
564.000000	0.038746
563.000000	0.038735
562.000000	0.038728
561.000000	0.038799
560.000000	0.038663
559.000000	0.038676
558.000000	0.038784
557.000000	0.038774
556.000000	0.038825
555.000000	0.038869
554.000000	0.038877
553.000000	0.038851
552.000000	0.038893
551.000000	0.038978
550.000000	0.038967
549.000000	0.038970
548.000000	0.038943
547.000000	0.039031
546.000000	0.039074
545.000000	0.039023
544.000000	0.039027
543.000000	0.039117
542.000000	0.039022
541.000000	0.038994
540.000000	0.039120
539.000000	0.039132
538.000000	0.039099
537.000000	0.039142
536.000000	0.039239
535.000000	0.039294
534.000000	0.039505
533.000000	0.039362
532.000000	0.039282
531.000000	0.039199
530.000000	0.039231
529.000000	0.039380
528.000000	0.039401
527.000000	0.039408
526.000000	0.039536
525.000000	0.039630
524.000000	0.039598
523.000000	0.039674
522.000000	0.039800
521.000000	0.039869
520.000000	0.039903
519.000000	0.039903
518.000000	0.040059
517.000000	0.040139
516.000000	0.040208
515.000000	0.040349
514.000000	0.040355
513.000000	0.040367
512.000000	0.040423
511.000000	0.040549
510.000000	0.040607
509.000000	0.040599
508.000000	0.040702
507.000000	0.040822
506.000000	0.040788
505.000000	0.040816
504.000000	0.040993
503.000000	0.041092
502.000000	0.041085
501.000000	0.041129
500.000000	0.041213
499.000000	0.041217
498.000000	0.041212
497.000000	0.041362
496.000000	0.041476
495.000000	0.041423
494.000000	0.041470
493.000000	0.041639
492.000000	0.041666
491.000000	0.041700
490.000000	0.041840
489.000000	0.041908
488.000000	0.041895
487.000000	0.041933
486.000000	0.042050
485.000000	0.042125
484.000000	0.042150
483.000000	0.042209
482.000000	0.042319
481.000000	0.042354
480.000000	0.042363
479.000000	0.042425
478.000000	0.042527
477.000000	0.042588
476.000000	0.042639
475.000000	0.042760
474.000000	0.042827
473.000000	0.042855
472.000000	0.043016
471.000000	0.043139
470.000000	0.043130
469.000000	0.043198
468.000000	0.043376
467.000000	0.043549
466.000000	0.043583
465.000000	0.043643
464.000000	0.043777
463.000000	0.043909
462.000000	0.044017
461.000000	0.044133
460.000000	0.044326
459.000000	0.044372
458.000000	0.044487
457.000000	0.044725
456.000000	0.044846
455.000000	0.044889
454.000000	0.045035
453.000000	0.045243
452.000000	0.045374
451.000000	0.045497
450.000000	0.045713
449.000000	0.045888
448.000000	0.045963
447.000000	0.046102
446.000000	0.046356
445.000000	0.046607
444.000000	0.046676
443.000000	0.046812
442.000000	0.047074
441.000000	0.047169
440.000000	0.047329
439.000000	0.047570
438.000000	0.047885
437.000000	0.048056
436.000000	0.048210
435.000000	0.048347
434.000000	0.048541
433.000000	0.048775
432.000000	0.049085
431.000000	0.049353
430.000000	0.049490
429.000000	0.049674
428.000000	0.049975
427.000000	0.050199
426.000000	0.050407
425.000000	0.050703
424.000000	0.050912
423.000000	0.051110
422.000000	0.051313
421.000000	0.051589
420.000000	0.051939
419.000000	0.052127
418.000000	0.052357
417.000000	0.052612
416.000000	0.052889
415.000000	0.053077
414.000000	0.053366
413.000000	0.053777
412.000000	0.053941
411.000000	0.054077
410.000000	0.054511
409.000000	0.054760
408.000000	0.055000
407.000000	0.055237
406.000000	0.055601
405.000000	0.055808
404.000000	0.055937
403.000000	0.056335
402.000000	0.056682
401.000000	0.056958
400.000000	0.057152
399.000000	0.057572
398.000000	0.057887
397.000000	0.058133
396.000000	0.058405
395.000000	0.058773
394.000000	0.059170
393.000000	0.059403
392.000000	0.059682
391.000000	0.060165
390.000000	0.060489
389.000000	0.060666
388.000000	0.061145
387.000000	0.061503
386.000000	0.061792
385.000000	0.062257
384.000000	0.062696
383.000000	0.062995
382.000000	0.063402
381.000000	0.063766
380.000000	0.064264
379.000000	0.064602
378.000000	0.065025
377.000000	0.065324
376.000000	0.065894
375.000000	0.066391
374.000000	0.066831
373.000000	0.067516
372.000000	0.067696
371.000000	0.068266
370.000000	0.068916
369.000000	0.069468
368.000000	0.069834
367.000000	0.070481
366.000000	0.071110
365.000000	0.071477
364.000000	0.072059
363.000000	0.072905
362.000000	0.073346
361.000000	0.073827
360.000000	0.074493
359.000000	0.075199
358.000000	0.075717
357.000000	0.076288
356.000000	0.077018
355.000000	0.077756
354.000000	0.078309
353.000000	0.078863
352.000000	0.079706
351.000000	0.080240
350.000000	0.080915
349.000000	0.081680
348.000000	0.082448
347.000000	0.083073
346.000000	0.083729
345.000000	0.084605
344.000000	0.085331
343.000000	0.086087
342.000000	0.086763
341.000000	0.087593
340.000000	0.088450
339.000000	0.089151
338.000000	0.090010
337.000000	0.090974
336.000000	0.091716
335.000000	0.092464
334.000000	0.093456
333.000000	0.094378
332.000000	0.095246
331.000000	0.096105
330.000000	0.097058
329.000000	0.097944
328.000000	0.098833
327.000000	0.100005
326.000000	0.100936
325.000000	0.101848
324.000000	0.102838
323.000000	0.103967
322.000000	0.105108
321.000000	0.106164
320.000000	0.107197
319.000000	0.108402
318.000000	0.108636
317.000000	0.107890
316.000000	0.108916
315.000000	0.110096
314.000000	0.111322
313.000000	0.112642
312.000000	0.113860
311.000000	0.115061
310.000000	0.116445
309.000000	0.117741
308.000000	0.118957
307.000000	0.120333
306.000000	0.121855
305.000000	0.123241
304.000000	0.124605
303.000000	0.126089
302.000000	0.127689
301.000000	0.129195
300.000000	0.130759
299.000000	0.132389
298.000000	0.134007
297.000000	0.135611
296.000000	0.137423
295.000000	0.139242
294.000000	0.140972
293.000000	0.142801
292.000000	0.144725
291.000000	0.146692
290.000000	0.148620
289.000000	0.150636
288.000000	0.152795
287.000000	0.154803
286.000000	0.156745
285.000000	0.158912
284.000000	0.161054
283.000000	0.163124
282.000000	0.165254
281.000000	0.167328
280.000000	0.169309
279.000000	0.171301
278.000000	0.173493
277.000000	0.175724
276.000000	0.177792
275.000000	0.179862
274.000000	0.182105
273.000000	0.184325
272.000000	0.186523
271.000000	0.188647
270.000000	0.190792
269.000000	0.192819
268.000000	0.194789
267.000000	0.196951
266.000000	0.199076
265.000000	0.201006
264.000000	0.202894
263.000000	0.204912
262.000000	0.206813
261.000000	0.208652
260.000000	0.210503
259.000000	0.212394
258.000000	0.214106
257.000000	0.215775
256.000000	0.217643
255.000000	0.219516
254.000000	0.221175
253.000000	0.222899
252.000000	0.224824
251.000000	0.226650
250.000000	0.228526
249.000000	0.230585
248.000000	0.232769
247.000000	0.235008
246.000000	0.237310
245.000000	0.239894
244.000000	0.242651
243.000000	0.245449
242.000000	0.248393
241.000000	0.251688
240.000000	0.255114
239.000000	0.258711
238.000000	0.262570
237.000000	0.266723
236.000000	0.271009
235.000000	0.275480
234.000000	0.280400
233.000000	0.285557
232.000000	0.290837
231.000000	0.296659
230.000000	0.302840
229.000000	0.309206
228.000000	0.315972
227.000000	0.323326
226.000000	0.331338
225.000000	0.339689
224.000000	0.348950
223.000000	0.359128
222.000000	0.370143
221.000000	0.382217
220.000000	0.395332
219.000000	0.410322
218.000000	0.426892
217.000000	0.445645
216.000000	0.467194
215.000000	0.491754
214.000000	0.519866
213.000000	0.552353
212.000000	0.589710
211.000000	0.632768
210.000000	0.681699
209.000000	0.738655
208.000000	0.803966
207.000000	0.879950
206.000000	0.968863
205.000000	1.073827
204.000000	1.200114
203.000000	1.353977
202.000000	1.545766
201.000000	1.790488
200.000000	2.106252
