PE UV       SUBTECH     SPECTRUM    ASCII       PEDS        4.00        
   -1
KY6-03B.Sample.Raw.asc
11/10/07
13:22:44.00
11/10/07
13:22:44.00
Hermanni Kaartokallio

200.000000
1
Lambda 650
650N8121101
PerkinElmer UV WinLab 6.0.2.0723 / 1.61.00 Lambda 650

0
0
2
0
0
UV/VIS
1
1
1
uv/vis/nir detector
0
0
0
0
Fix
 
0
0.24
0
0
0
 
 
 
0
 
0
319.2
0
Front
100
 
 
 
0
0
0
 
0
 
 
 
0
 
 
0
0
0
0
0
 
 
 
 
0
0
#HDR
-1
-1
#GR
nm
A
1.0
0.0
800.000000
-1.000000
601
8
2.035979
0.036034
#DATA
800.000000	0.042892
799.000000	0.042947
798.000000	0.042966
797.000000	0.042915
796.000000	0.043032
795.000000	0.043229
794.000000	0.043084
793.000000	0.043059
792.000000	0.043204
791.000000	0.043346
790.000000	0.043354
789.000000	0.043289
788.000000	0.043499
787.000000	0.043606
786.000000	0.043609
785.000000	0.043742
784.000000	0.043832
783.000000	0.043827
782.000000	0.043920
781.000000	0.044134
780.000000	0.044079
779.000000	0.043971
778.000000	0.044163
777.000000	0.044377
776.000000	0.044290
775.000000	0.044279
774.000000	0.044381
773.000000	0.044399
772.000000	0.044416
771.000000	0.044455
770.000000	0.044552
769.000000	0.044488
768.000000	0.044476
767.000000	0.044481
766.000000	0.044558
765.000000	0.044531
764.000000	0.044489
763.000000	0.044507
762.000000	0.044543
761.000000	0.044499
760.000000	0.044486
759.000000	0.044507
758.000000	0.044631
757.000000	0.044541
756.000000	0.044509
755.000000	0.044638
754.000000	0.044602
753.000000	0.044496
752.000000	0.044596
751.000000	0.044539
750.000000	0.044406
749.000000	0.044483
748.000000	0.044590
747.000000	0.044523
746.000000	0.044464
745.000000	0.044535
744.000000	0.044454
743.000000	0.044316
742.000000	0.044322
741.000000	0.044374
740.000000	0.044311
739.000000	0.044144
738.000000	0.043995
737.000000	0.043958
736.000000	0.043660
735.000000	0.043336
734.000000	0.043001
733.000000	0.042582
732.000000	0.042091
731.000000	0.041596
730.000000	0.041185
729.000000	0.040865
728.000000	0.040385
727.000000	0.040039
726.000000	0.039796
725.000000	0.039581
724.000000	0.039333
723.000000	0.039139
722.000000	0.038941
721.000000	0.038722
720.000000	0.038515
719.000000	0.038372
718.000000	0.038205
717.000000	0.038047
716.000000	0.037921
715.000000	0.037761
714.000000	0.037562
713.000000	0.037425
712.000000	0.037387
711.000000	0.037305
710.000000	0.037184
709.000000	0.037120
708.000000	0.037072
707.000000	0.036901
706.000000	0.036777
705.000000	0.036715
704.000000	0.036631
703.000000	0.036533
702.000000	0.036546
701.000000	0.036568
700.000000	0.036589
699.000000	0.036614
698.000000	0.036498
697.000000	0.036417
696.000000	0.036330
695.000000	0.036279
694.000000	0.036310
693.000000	0.036296
692.000000	0.036240
691.000000	0.036183
690.000000	0.036196
689.000000	0.036169
688.000000	0.036148
687.000000	0.036158
686.000000	0.036131
685.000000	0.036145
684.000000	0.036194
683.000000	0.036210
682.000000	0.036178
681.000000	0.036231
680.000000	0.036311
679.000000	0.036348
678.000000	0.036309
677.000000	0.036291
676.000000	0.036333
675.000000	0.036225
674.000000	0.036256
673.000000	0.036388
672.000000	0.036420
671.000000	0.036420
670.000000	0.036384
669.000000	0.036378
668.000000	0.036413
667.000000	0.036387
666.000000	0.036431
665.000000	0.036528
664.000000	0.036376
663.000000	0.036263
662.000000	0.036387
661.000000	0.036370
660.000000	0.036335
659.000000	0.036239
658.000000	0.036269
657.000000	0.036444
656.000000	0.036344
655.000000	0.036338
654.000000	0.036359
653.000000	0.036156
652.000000	0.036034
651.000000	0.036100
650.000000	0.036160
649.000000	0.036113
648.000000	0.036145
647.000000	0.036253
646.000000	0.036277
645.000000	0.036272
644.000000	0.036352
643.000000	0.036369
642.000000	0.036385
641.000000	0.036430
640.000000	0.036510
639.000000	0.036472
638.000000	0.036494
637.000000	0.036497
636.000000	0.036521
635.000000	0.036571
634.000000	0.036536
633.000000	0.036564
632.000000	0.036743
631.000000	0.036743
630.000000	0.036751
629.000000	0.036705
628.000000	0.036706
627.000000	0.036714
626.000000	0.036775
625.000000	0.036857
624.000000	0.036810
623.000000	0.036797
622.000000	0.036824
621.000000	0.036906
620.000000	0.036926
619.000000	0.037019
618.000000	0.037054
617.000000	0.037011
616.000000	0.037045
615.000000	0.037052
614.000000	0.037129
613.000000	0.037152
612.000000	0.037153
611.000000	0.037238
610.000000	0.037205
609.000000	0.037168
608.000000	0.037244
607.000000	0.037297
606.000000	0.037218
605.000000	0.037261
604.000000	0.037275
603.000000	0.037305
602.000000	0.037245
601.000000	0.037280
600.000000	0.037289
599.000000	0.037196
598.000000	0.037005
597.000000	0.037103
596.000000	0.037045
595.000000	0.036998
594.000000	0.036954
593.000000	0.037021
592.000000	0.036987
591.000000	0.036938
590.000000	0.036984
589.000000	0.036938
588.000000	0.036959
587.000000	0.036885
586.000000	0.036877
585.000000	0.036821
584.000000	0.036923
583.000000	0.036827
582.000000	0.036860
581.000000	0.036852
580.000000	0.036916
579.000000	0.036862
578.000000	0.036862
577.000000	0.036849
576.000000	0.036941
575.000000	0.036924
574.000000	0.036834
573.000000	0.036713
572.000000	0.036806
571.000000	0.036812
570.000000	0.036829
569.000000	0.036824
568.000000	0.036830
567.000000	0.036871
566.000000	0.036838
565.000000	0.036943
564.000000	0.036965
563.000000	0.037027
562.000000	0.036990
561.000000	0.036974
560.000000	0.036928
559.000000	0.036914
558.000000	0.037012
557.000000	0.037084
556.000000	0.037138
555.000000	0.037143
554.000000	0.037113
553.000000	0.037244
552.000000	0.037295
551.000000	0.037332
550.000000	0.037408
549.000000	0.037424
548.000000	0.037421
547.000000	0.037513
546.000000	0.037651
545.000000	0.037615
544.000000	0.037639
543.000000	0.037726
542.000000	0.037856
541.000000	0.037815
540.000000	0.037879
539.000000	0.037980
538.000000	0.038059
537.000000	0.038079
536.000000	0.038215
535.000000	0.038265
534.000000	0.038340
533.000000	0.038429
532.000000	0.038459
531.000000	0.038504
530.000000	0.038555
529.000000	0.038595
528.000000	0.038696
527.000000	0.038756
526.000000	0.038827
525.000000	0.038929
524.000000	0.039004
523.000000	0.039062
522.000000	0.039055
521.000000	0.039135
520.000000	0.039209
519.000000	0.039205
518.000000	0.039263
517.000000	0.039370
516.000000	0.039418
515.000000	0.039492
514.000000	0.039512
513.000000	0.039567
512.000000	0.039544
511.000000	0.039553
510.000000	0.039618
509.000000	0.039683
508.000000	0.039686
507.000000	0.039719
506.000000	0.039762
505.000000	0.039759
504.000000	0.039802
503.000000	0.039861
502.000000	0.039919
501.000000	0.039946
500.000000	0.039923
499.000000	0.039942
498.000000	0.039979
497.000000	0.040047
496.000000	0.040125
495.000000	0.040079
494.000000	0.040136
493.000000	0.040261
492.000000	0.040303
491.000000	0.040370
490.000000	0.040428
489.000000	0.040408
488.000000	0.040465
487.000000	0.040561
486.000000	0.040617
485.000000	0.040676
484.000000	0.040657
483.000000	0.040634
482.000000	0.040748
481.000000	0.040821
480.000000	0.040878
479.000000	0.040900
478.000000	0.040930
477.000000	0.041003
476.000000	0.041093
475.000000	0.041161
474.000000	0.041244
473.000000	0.041354
472.000000	0.041429
471.000000	0.041411
470.000000	0.041504
469.000000	0.041648
468.000000	0.041730
467.000000	0.041816
466.000000	0.041934
465.000000	0.041997
464.000000	0.042121
463.000000	0.042272
462.000000	0.042377
461.000000	0.042492
460.000000	0.042614
459.000000	0.042728
458.000000	0.042883
457.000000	0.043008
456.000000	0.043177
455.000000	0.043264
454.000000	0.043359
453.000000	0.043514
452.000000	0.043645
451.000000	0.043828
450.000000	0.043978
449.000000	0.044135
448.000000	0.044329
447.000000	0.044454
446.000000	0.044627
445.000000	0.044805
444.000000	0.044949
443.000000	0.045045
442.000000	0.045232
441.000000	0.045372
440.000000	0.045538
439.000000	0.045651
438.000000	0.045886
437.000000	0.046118
436.000000	0.046315
435.000000	0.046359
434.000000	0.046538
433.000000	0.046830
432.000000	0.047017
431.000000	0.047150
430.000000	0.047337
429.000000	0.047522
428.000000	0.047673
427.000000	0.047942
426.000000	0.048147
425.000000	0.048322
424.000000	0.048422
423.000000	0.048595
422.000000	0.048826
421.000000	0.049031
420.000000	0.049259
419.000000	0.049441
418.000000	0.049639
417.000000	0.049736
416.000000	0.050049
415.000000	0.050203
414.000000	0.050359
413.000000	0.050679
412.000000	0.050819
411.000000	0.050981
410.000000	0.051168
409.000000	0.051399
408.000000	0.051576
407.000000	0.051869
406.000000	0.052072
405.000000	0.052245
404.000000	0.052432
403.000000	0.052699
402.000000	0.052957
401.000000	0.053117
400.000000	0.053315
399.000000	0.053543
398.000000	0.053820
397.000000	0.054128
396.000000	0.054336
395.000000	0.054569
394.000000	0.054928
393.000000	0.055090
392.000000	0.055306
391.000000	0.055643
390.000000	0.055967
389.000000	0.056196
388.000000	0.056524
387.000000	0.056783
386.000000	0.057143
385.000000	0.057535
384.000000	0.057845
383.000000	0.058088
382.000000	0.058497
381.000000	0.058726
380.000000	0.059103
379.000000	0.059497
378.000000	0.059734
377.000000	0.059998
376.000000	0.060492
375.000000	0.061048
374.000000	0.061372
373.000000	0.061787
372.000000	0.062178
371.000000	0.062615
370.000000	0.063127
369.000000	0.063558
368.000000	0.064098
367.000000	0.064517
366.000000	0.065018
365.000000	0.065398
364.000000	0.066068
363.000000	0.066533
362.000000	0.067009
361.000000	0.067499
360.000000	0.068056
359.000000	0.068589
358.000000	0.069125
357.000000	0.069666
356.000000	0.070215
355.000000	0.070817
354.000000	0.071369
353.000000	0.071883
352.000000	0.072472
351.000000	0.073091
350.000000	0.073684
349.000000	0.074389
348.000000	0.074908
347.000000	0.075399
346.000000	0.076091
345.000000	0.076835
344.000000	0.077445
343.000000	0.078204
342.000000	0.078714
341.000000	0.079425
340.000000	0.080190
339.000000	0.080854
338.000000	0.081544
337.000000	0.082325
336.000000	0.083049
335.000000	0.083746
334.000000	0.084496
333.000000	0.085305
332.000000	0.086093
331.000000	0.086869
330.000000	0.087714
329.000000	0.088503
328.000000	0.089282
327.000000	0.090145
326.000000	0.091022
325.000000	0.091911
324.000000	0.092794
323.000000	0.093669
322.000000	0.094579
321.000000	0.095631
320.000000	0.096528
319.000000	0.097441
318.000000	0.096418
317.000000	0.093137
316.000000	0.094076
315.000000	0.095200
314.000000	0.096257
313.000000	0.097345
312.000000	0.098431
311.000000	0.099557
310.000000	0.100691
309.000000	0.101799
308.000000	0.103069
307.000000	0.104269
306.000000	0.105512
305.000000	0.106838
304.000000	0.108149
303.000000	0.109515
302.000000	0.110927
301.000000	0.112343
300.000000	0.113744
299.000000	0.115088
298.000000	0.116670
297.000000	0.118295
296.000000	0.119826
295.000000	0.121429
294.000000	0.123132
293.000000	0.124819
292.000000	0.126526
291.000000	0.128380
290.000000	0.130156
289.000000	0.131929
288.000000	0.133820
287.000000	0.135702
286.000000	0.137582
285.000000	0.139511
284.000000	0.141382
283.000000	0.143349
282.000000	0.145282
281.000000	0.147070
280.000000	0.148948
279.000000	0.150885
278.000000	0.152849
277.000000	0.154815
276.000000	0.156748
275.000000	0.158724
274.000000	0.160724
273.000000	0.162722
272.000000	0.164700
271.000000	0.166683
270.000000	0.168581
269.000000	0.170404
268.000000	0.172312
267.000000	0.174238
266.000000	0.176114
265.000000	0.177916
264.000000	0.179663
263.000000	0.181433
262.000000	0.183204
261.000000	0.184966
260.000000	0.186647
259.000000	0.188236
258.000000	0.189800
257.000000	0.191406
256.000000	0.192962
255.000000	0.194626
254.000000	0.196240
253.000000	0.197923
252.000000	0.199643
251.000000	0.201256
250.000000	0.202970
249.000000	0.204760
248.000000	0.206704
247.000000	0.208804
246.000000	0.210936
245.000000	0.213156
244.000000	0.215603
243.000000	0.218204
242.000000	0.220834
241.000000	0.223751
240.000000	0.226810
239.000000	0.230040
238.000000	0.233362
237.000000	0.236962
236.000000	0.240849
235.000000	0.244745
234.000000	0.248999
233.000000	0.253422
232.000000	0.258107
231.000000	0.263156
230.000000	0.268341
229.000000	0.273686
228.000000	0.279355
227.000000	0.285495
226.000000	0.292153
225.000000	0.299168
224.000000	0.306843
223.000000	0.315249
222.000000	0.324525
221.000000	0.334867
220.000000	0.346392
219.000000	0.359220
218.000000	0.373674
217.000000	0.390404
216.000000	0.409146
215.000000	0.431366
214.000000	0.457498
213.000000	0.487964
212.000000	0.523453
211.000000	0.564822
210.000000	0.612859
209.000000	0.667808
208.000000	0.732083
207.000000	0.807546
206.000000	0.896442
205.000000	1.000447
204.000000	1.126504
203.000000	1.280946
202.000000	1.474013
201.000000	1.718838
200.000000	2.035979
