PE UV       SUBTECH     SPECTRUM    ASCII       PEDS        4.00        
   -1
MQ20710.Sample.Raw.asc
11/10/07
13:35:49.00
11/10/07
13:35:49.00
Hermanni Kaartokallio

200.000000
1
Lambda 650
650N8121101
PerkinElmer UV WinLab 6.0.2.0723 / 1.61.00 Lambda 650

0
0
2
0
0
UV/VIS
1
1
1
uv/vis/nir detector
0
0
0
0
Fix
 
0
0.24
0
0
0
 
 
 
0
 
0
319.2
0
Front
100
 
 
 
0
0
0
 
0
 
 
 
0
 
 
0
0
0
0
0
 
 
 
 
0
0
#HDR
-1
-1
#GR
nm
A
1.0
0.0
800.000000
-1.000000
601
8
0.218864
0.036272
#DATA
800.000000	0.044255
799.000000	0.044255
798.000000	0.044346
797.000000	0.044311
796.000000	0.044473
795.000000	0.044525
794.000000	0.044640
793.000000	0.044739
792.000000	0.044623
791.000000	0.044746
790.000000	0.044921
789.000000	0.044926
788.000000	0.044939
787.000000	0.045120
786.000000	0.045111
785.000000	0.045283
784.000000	0.045229
783.000000	0.045239
782.000000	0.045353
781.000000	0.045494
780.000000	0.045402
779.000000	0.045433
778.000000	0.045659
777.000000	0.045587
776.000000	0.045608
775.000000	0.045654
774.000000	0.045700
773.000000	0.045725
772.000000	0.045785
771.000000	0.045881
770.000000	0.045902
769.000000	0.045869
768.000000	0.045884
767.000000	0.045997
766.000000	0.045931
765.000000	0.046011
764.000000	0.046078
763.000000	0.046069
762.000000	0.046046
761.000000	0.046216
760.000000	0.046301
759.000000	0.046216
758.000000	0.046288
757.000000	0.046391
756.000000	0.046379
755.000000	0.046395
754.000000	0.046468
753.000000	0.046516
752.000000	0.046513
751.000000	0.046510
750.000000	0.046496
749.000000	0.046577
748.000000	0.046550
747.000000	0.046531
746.000000	0.046615
745.000000	0.046658
744.000000	0.046552
743.000000	0.046507
742.000000	0.046548
741.000000	0.046496
740.000000	0.046395
739.000000	0.046381
738.000000	0.046238
737.000000	0.046045
736.000000	0.045820
735.000000	0.045480
734.000000	0.045099
733.000000	0.044533
732.000000	0.044105
731.000000	0.043579
730.000000	0.043033
729.000000	0.042628
728.000000	0.042204
727.000000	0.041788
726.000000	0.041439
725.000000	0.041220
724.000000	0.040973
723.000000	0.040706
722.000000	0.040485
721.000000	0.040284
720.000000	0.040031
719.000000	0.039794
718.000000	0.039564
717.000000	0.039432
716.000000	0.039294
715.000000	0.039013
714.000000	0.038804
713.000000	0.038626
712.000000	0.038492
711.000000	0.038346
710.000000	0.038263
709.000000	0.038117
708.000000	0.037887
707.000000	0.037772
706.000000	0.037738
705.000000	0.037581
704.000000	0.037415
703.000000	0.037354
702.000000	0.037367
701.000000	0.037341
700.000000	0.037363
699.000000	0.037380
698.000000	0.037230
697.000000	0.037104
696.000000	0.037013
695.000000	0.037021
694.000000	0.037010
693.000000	0.036926
692.000000	0.036963
691.000000	0.036940
690.000000	0.036854
689.000000	0.036840
688.000000	0.036841
687.000000	0.036821
686.000000	0.036837
685.000000	0.036880
684.000000	0.036824
683.000000	0.036780
682.000000	0.036813
681.000000	0.036883
680.000000	0.036907
679.000000	0.036878
678.000000	0.036842
677.000000	0.036834
676.000000	0.036837
675.000000	0.036765
674.000000	0.036808
673.000000	0.036924
672.000000	0.036929
671.000000	0.036947
670.000000	0.036963
669.000000	0.036904
668.000000	0.036884
667.000000	0.036936
666.000000	0.036925
665.000000	0.036893
664.000000	0.036725
663.000000	0.036706
662.000000	0.036769
661.000000	0.036744
660.000000	0.036739
659.000000	0.036684
658.000000	0.036583
657.000000	0.036707
656.000000	0.036682
655.000000	0.036614
654.000000	0.036535
653.000000	0.036401
652.000000	0.036330
651.000000	0.036272
650.000000	0.036291
649.000000	0.036332
648.000000	0.036372
647.000000	0.036347
646.000000	0.036346
645.000000	0.036380
644.000000	0.036376
643.000000	0.036354
642.000000	0.036396
641.000000	0.036470
640.000000	0.036413
639.000000	0.036407
638.000000	0.036463
637.000000	0.036459
636.000000	0.036406
635.000000	0.036474
634.000000	0.036481
633.000000	0.036453
632.000000	0.036517
631.000000	0.036578
630.000000	0.036625
629.000000	0.036559
628.000000	0.036522
627.000000	0.036573
626.000000	0.036647
625.000000	0.036624
624.000000	0.036607
623.000000	0.036660
622.000000	0.036655
621.000000	0.036671
620.000000	0.036740
619.000000	0.036792
618.000000	0.036734
617.000000	0.036797
616.000000	0.036884
615.000000	0.036928
614.000000	0.036908
613.000000	0.036947
612.000000	0.036967
611.000000	0.037038
610.000000	0.036970
609.000000	0.037055
608.000000	0.037119
607.000000	0.037144
606.000000	0.037122
605.000000	0.037247
604.000000	0.037213
603.000000	0.037164
602.000000	0.037211
601.000000	0.037262
600.000000	0.037224
599.000000	0.037202
598.000000	0.037167
597.000000	0.037238
596.000000	0.037080
595.000000	0.037143
594.000000	0.037215
593.000000	0.037195
592.000000	0.037146
591.000000	0.037206
590.000000	0.037221
589.000000	0.037166
588.000000	0.037186
587.000000	0.037223
586.000000	0.037214
585.000000	0.037110
584.000000	0.037227
583.000000	0.037261
582.000000	0.037186
581.000000	0.037051
580.000000	0.037222
579.000000	0.037267
578.000000	0.037182
577.000000	0.037153
576.000000	0.037256
575.000000	0.037222
574.000000	0.037172
573.000000	0.037084
572.000000	0.037147
571.000000	0.037153
570.000000	0.037158
569.000000	0.037102
568.000000	0.037149
567.000000	0.037130
566.000000	0.037140
565.000000	0.037326
564.000000	0.037219
563.000000	0.037218
562.000000	0.037173
561.000000	0.037121
560.000000	0.037027
559.000000	0.037112
558.000000	0.037239
557.000000	0.037155
556.000000	0.037211
555.000000	0.037250
554.000000	0.037212
553.000000	0.037196
552.000000	0.037226
551.000000	0.037234
550.000000	0.037169
549.000000	0.037166
548.000000	0.037144
547.000000	0.037242
546.000000	0.037261
545.000000	0.037214
544.000000	0.037231
543.000000	0.037283
542.000000	0.037229
541.000000	0.037257
540.000000	0.037336
539.000000	0.037301
538.000000	0.037266
537.000000	0.037298
536.000000	0.037397
535.000000	0.037332
534.000000	0.037397
533.000000	0.037499
532.000000	0.037450
531.000000	0.037366
530.000000	0.037476
529.000000	0.037528
528.000000	0.037525
527.000000	0.037580
526.000000	0.037679
525.000000	0.037716
524.000000	0.037669
523.000000	0.037739
522.000000	0.037790
521.000000	0.037836
520.000000	0.037891
519.000000	0.037890
518.000000	0.037952
517.000000	0.038010
516.000000	0.038098
515.000000	0.038211
514.000000	0.038173
513.000000	0.038184
512.000000	0.038216
511.000000	0.038274
510.000000	0.038305
509.000000	0.038284
508.000000	0.038360
507.000000	0.038409
506.000000	0.038370
505.000000	0.038413
504.000000	0.038495
503.000000	0.038497
502.000000	0.038489
501.000000	0.038540
500.000000	0.038587
499.000000	0.038546
498.000000	0.038520
497.000000	0.038650
496.000000	0.038711
495.000000	0.038585
494.000000	0.038618
493.000000	0.038767
492.000000	0.038766
491.000000	0.038743
490.000000	0.038804
489.000000	0.038772
488.000000	0.038715
487.000000	0.038739
486.000000	0.038854
485.000000	0.038901
484.000000	0.038851
483.000000	0.038875
482.000000	0.038938
481.000000	0.038918
480.000000	0.038915
479.000000	0.038939
478.000000	0.038961
477.000000	0.038949
476.000000	0.038995
475.000000	0.039098
474.000000	0.039040
473.000000	0.039002
472.000000	0.039116
471.000000	0.039130
470.000000	0.039072
469.000000	0.039086
468.000000	0.039199
467.000000	0.039283
466.000000	0.039301
465.000000	0.039329
464.000000	0.039391
463.000000	0.039432
462.000000	0.039493
461.000000	0.039540
460.000000	0.039598
459.000000	0.039656
458.000000	0.039718
457.000000	0.039812
456.000000	0.039886
455.000000	0.039810
454.000000	0.039857
453.000000	0.040004
452.000000	0.039992
451.000000	0.040021
450.000000	0.040149
449.000000	0.040236
448.000000	0.040231
447.000000	0.040330
446.000000	0.040474
445.000000	0.040523
444.000000	0.040505
443.000000	0.040587
442.000000	0.040692
441.000000	0.040741
440.000000	0.040772
439.000000	0.040937
438.000000	0.041084
437.000000	0.041121
436.000000	0.041228
435.000000	0.041258
434.000000	0.041333
433.000000	0.041450
432.000000	0.041607
431.000000	0.041732
430.000000	0.041812
429.000000	0.041835
428.000000	0.041918
427.000000	0.042036
426.000000	0.042046
425.000000	0.042220
424.000000	0.042277
423.000000	0.042239
422.000000	0.042398
421.000000	0.042558
420.000000	0.042655
419.000000	0.042663
418.000000	0.042771
417.000000	0.042848
416.000000	0.042950
415.000000	0.042997
414.000000	0.043098
413.000000	0.043294
412.000000	0.043322
411.000000	0.043277
410.000000	0.043428
409.000000	0.043531
408.000000	0.043535
407.000000	0.043542
406.000000	0.043785
405.000000	0.043729
404.000000	0.043693
403.000000	0.043912
402.000000	0.044042
401.000000	0.043972
400.000000	0.043983
399.000000	0.044175
398.000000	0.044185
397.000000	0.044177
396.000000	0.044290
395.000000	0.044371
394.000000	0.044472
393.000000	0.044449
392.000000	0.044562
391.000000	0.044644
390.000000	0.044611
389.000000	0.044615
388.000000	0.044830
387.000000	0.044759
386.000000	0.044854
385.000000	0.044915
384.000000	0.045160
383.000000	0.045065
382.000000	0.045132
381.000000	0.045228
380.000000	0.045294
379.000000	0.045358
378.000000	0.045265
377.000000	0.045251
376.000000	0.045388
375.000000	0.045554
374.000000	0.045708
373.000000	0.045815
372.000000	0.045846
371.000000	0.045975
370.000000	0.046261
369.000000	0.046284
368.000000	0.046311
367.000000	0.046525
366.000000	0.046631
365.000000	0.046600
364.000000	0.046828
363.000000	0.046989
362.000000	0.047027
361.000000	0.047064
360.000000	0.047308
359.000000	0.047420
358.000000	0.047450
357.000000	0.047634
356.000000	0.047711
355.000000	0.047949
354.000000	0.048041
353.000000	0.048094
352.000000	0.048327
351.000000	0.048358
350.000000	0.048412
349.000000	0.048650
348.000000	0.048851
347.000000	0.048777
346.000000	0.048913
345.000000	0.049228
344.000000	0.049397
343.000000	0.049512
342.000000	0.049563
341.000000	0.049712
340.000000	0.049973
339.000000	0.050059
338.000000	0.050258
337.000000	0.050433
336.000000	0.050494
335.000000	0.050617
334.000000	0.050884
333.000000	0.051116
332.000000	0.051171
331.000000	0.051348
330.000000	0.051570
329.000000	0.051748
328.000000	0.051803
327.000000	0.052116
326.000000	0.052311
325.000000	0.052413
324.000000	0.052565
323.000000	0.052871
322.000000	0.053033
321.000000	0.053318
320.000000	0.053494
319.000000	0.053766
318.000000	0.052918
317.000000	0.050903
316.000000	0.050967
315.000000	0.051268
314.000000	0.051572
313.000000	0.051817
312.000000	0.051915
311.000000	0.052149
310.000000	0.052455
309.000000	0.052763
308.000000	0.053085
307.000000	0.053439
306.000000	0.053735
305.000000	0.054023
304.000000	0.054346
303.000000	0.054792
302.000000	0.055135
301.000000	0.055352
300.000000	0.055736
299.000000	0.056132
298.000000	0.056473
297.000000	0.056842
296.000000	0.057320
295.000000	0.057732
294.000000	0.058105
293.000000	0.058550
292.000000	0.059077
291.000000	0.059564
290.000000	0.059978
289.000000	0.060538
288.000000	0.061148
287.000000	0.061577
286.000000	0.062031
285.000000	0.062714
284.000000	0.063314
283.000000	0.063805
282.000000	0.064392
281.000000	0.064942
280.000000	0.065357
279.000000	0.065777
278.000000	0.066385
277.000000	0.066978
276.000000	0.067377
275.000000	0.067759
274.000000	0.068253
273.000000	0.068676
272.000000	0.069035
271.000000	0.069403
270.000000	0.069806
269.000000	0.070050
268.000000	0.070271
267.000000	0.070723
266.000000	0.071136
265.000000	0.071313
264.000000	0.071512
263.000000	0.071838
262.000000	0.071973
261.000000	0.072193
260.000000	0.072464
259.000000	0.072735
258.000000	0.072965
257.000000	0.073122
256.000000	0.073446
255.000000	0.073811
254.000000	0.074007
253.000000	0.074316
252.000000	0.074773
251.000000	0.075031
250.000000	0.075233
249.000000	0.075727
248.000000	0.076259
247.000000	0.076702
246.000000	0.077143
245.000000	0.077706
244.000000	0.078306
243.000000	0.078970
242.000000	0.079646
241.000000	0.080437
240.000000	0.081235
239.000000	0.082034
238.000000	0.083004
237.000000	0.084096
236.000000	0.085140
235.000000	0.086196
234.000000	0.087561
233.000000	0.088956
232.000000	0.090237
231.000000	0.091863
230.000000	0.093596
229.000000	0.095174
228.000000	0.096890
227.000000	0.098850
226.000000	0.100812
225.000000	0.102623
224.000000	0.104743
223.000000	0.106794
222.000000	0.108898
221.000000	0.111072
220.000000	0.113478
219.000000	0.116172
218.000000	0.118782
217.000000	0.121593
216.000000	0.124946
215.000000	0.128149
214.000000	0.131615
213.000000	0.135498
212.000000	0.139568
211.000000	0.143916
210.000000	0.148380
209.000000	0.153283
208.000000	0.158662
207.000000	0.164111
206.000000	0.170150
205.000000	0.176653
204.000000	0.183777
203.000000	0.191406
202.000000	0.199845
201.000000	0.209049
200.000000	0.218864
