PE UV       SUBTECH     SPECTRUM    ASCII       PEDS        4.00        
   -1
MQ11410.Sample.Raw.asc
11/10/14
11:33:48.00
11/10/14
11:33:48.00
Hermanni Kaartokallio

200.000000
1
Lambda 650
650N8121101
PerkinElmer UV WinLab 6.0.2.0723 / 1.61.00 Lambda 650

0
0
2
0
0
UV/VIS
1
1
1
uv/vis/nir detector
0
0
0
0
Fix
 
0
0.24
0
0
0
 
 
 
0
 
0
319.2
0
Front
100
 
 
 
0
0
0
 
0
 
 
 
0
 
 
0
0
0
0
0
 
 
 
 
0
0
#HDR
-1
-1
#GR
nm
A
1.0
0.0
800.000000
-1.000000
601
8
0.167264
0.034951
#DATA
800.000000	0.043099
799.000000	0.043123
798.000000	0.043439
797.000000	0.043339
796.000000	0.043289
795.000000	0.043332
794.000000	0.043492
793.000000	0.043468
792.000000	0.043458
791.000000	0.043592
790.000000	0.043650
789.000000	0.043867
788.000000	0.043788
787.000000	0.043892
786.000000	0.043881
785.000000	0.043975
784.000000	0.044051
783.000000	0.044078
782.000000	0.044199
781.000000	0.044306
780.000000	0.044265
779.000000	0.044517
778.000000	0.044514
777.000000	0.044575
776.000000	0.044553
775.000000	0.044525
774.000000	0.044571
773.000000	0.044594
772.000000	0.044706
771.000000	0.044723
770.000000	0.044727
769.000000	0.044797
768.000000	0.044817
767.000000	0.044894
766.000000	0.044940
765.000000	0.044960
764.000000	0.044920
763.000000	0.044923
762.000000	0.044962
761.000000	0.044953
760.000000	0.045037
759.000000	0.045053
758.000000	0.045159
757.000000	0.045171
756.000000	0.045170
755.000000	0.045154
754.000000	0.045290
753.000000	0.045209
752.000000	0.045206
751.000000	0.045202
750.000000	0.045162
749.000000	0.045029
748.000000	0.045082
747.000000	0.045067
746.000000	0.044962
745.000000	0.044951
744.000000	0.044948
743.000000	0.044985
742.000000	0.044916
741.000000	0.044868
740.000000	0.044737
739.000000	0.044544
738.000000	0.044462
737.000000	0.044324
736.000000	0.044078
735.000000	0.043686
734.000000	0.043313
733.000000	0.042909
732.000000	0.042358
731.000000	0.041901
730.000000	0.041384
729.000000	0.040984
728.000000	0.040565
727.000000	0.040080
726.000000	0.039765
725.000000	0.039542
724.000000	0.039331
723.000000	0.039113
722.000000	0.038923
721.000000	0.038664
720.000000	0.038453
719.000000	0.038295
718.000000	0.038070
717.000000	0.037876
716.000000	0.037695
715.000000	0.037484
714.000000	0.037286
713.000000	0.037147
712.000000	0.037019
711.000000	0.036849
710.000000	0.036667
709.000000	0.036519
708.000000	0.036396
707.000000	0.036382
706.000000	0.036330
705.000000	0.036225
704.000000	0.036160
703.000000	0.035984
702.000000	0.035848
701.000000	0.035884
700.000000	0.035893
699.000000	0.035805
698.000000	0.035706
697.000000	0.035604
696.000000	0.035566
695.000000	0.035577
694.000000	0.035565
693.000000	0.035516
692.000000	0.035440
691.000000	0.035346
690.000000	0.035311
689.000000	0.035349
688.000000	0.035298
687.000000	0.035239
686.000000	0.035216
685.000000	0.035217
684.000000	0.035235
683.000000	0.035199
682.000000	0.035114
681.000000	0.035095
680.000000	0.035112
679.000000	0.035156
678.000000	0.035130
677.000000	0.035032
676.000000	0.035008
675.000000	0.034970
674.000000	0.034951
673.000000	0.035016
672.000000	0.035018
671.000000	0.035016
670.000000	0.035113
669.000000	0.035096
668.000000	0.035022
667.000000	0.035049
666.000000	0.035075
665.000000	0.035096
664.000000	0.035080
663.000000	0.035048
662.000000	0.035064
661.000000	0.035069
660.000000	0.035065
659.000000	0.035050
658.000000	0.034983
657.000000	0.034998
656.000000	0.034995
655.000000	0.035036
654.000000	0.035060
653.000000	0.035038
652.000000	0.035014
651.000000	0.035056
650.000000	0.035004
649.000000	0.035043
648.000000	0.035051
647.000000	0.035065
646.000000	0.035030
645.000000	0.035040
644.000000	0.035053
643.000000	0.035139
642.000000	0.035164
641.000000	0.035156
640.000000	0.035106
639.000000	0.035104
638.000000	0.035129
637.000000	0.035175
636.000000	0.035252
635.000000	0.035265
634.000000	0.035125
633.000000	0.035207
632.000000	0.035249
631.000000	0.035286
630.000000	0.035279
629.000000	0.035293
628.000000	0.035326
627.000000	0.035324
626.000000	0.035313
625.000000	0.035378
624.000000	0.035423
623.000000	0.035424
622.000000	0.035427
621.000000	0.035436
620.000000	0.035417
619.000000	0.035453
618.000000	0.035536
617.000000	0.035530
616.000000	0.035511
615.000000	0.035579
614.000000	0.035593
613.000000	0.035645
612.000000	0.035700
611.000000	0.035710
610.000000	0.035678
609.000000	0.035697
608.000000	0.035761
607.000000	0.035767
606.000000	0.035867
605.000000	0.035825
604.000000	0.035749
603.000000	0.035871
602.000000	0.035875
601.000000	0.035877
600.000000	0.035857
599.000000	0.035792
598.000000	0.035702
597.000000	0.035840
596.000000	0.035762
595.000000	0.035817
594.000000	0.035745
593.000000	0.035755
592.000000	0.035774
591.000000	0.035591
590.000000	0.035692
589.000000	0.035695
588.000000	0.035715
587.000000	0.035761
586.000000	0.035723
585.000000	0.035738
584.000000	0.035693
583.000000	0.035679
582.000000	0.035690
581.000000	0.035711
580.000000	0.035661
579.000000	0.035712
578.000000	0.035706
577.000000	0.035693
576.000000	0.035669
575.000000	0.035685
574.000000	0.035728
573.000000	0.035704
572.000000	0.035688
571.000000	0.035668
570.000000	0.035684
569.000000	0.035695
568.000000	0.035698
567.000000	0.035661
566.000000	0.035726
565.000000	0.035710
564.000000	0.035702
563.000000	0.035746
562.000000	0.035701
561.000000	0.035634
560.000000	0.035519
559.000000	0.035759
558.000000	0.035690
557.000000	0.035663
556.000000	0.035705
555.000000	0.035654
554.000000	0.035738
553.000000	0.035720
552.000000	0.035630
551.000000	0.035631
550.000000	0.035620
549.000000	0.035595
548.000000	0.035574
547.000000	0.035652
546.000000	0.035673
545.000000	0.035659
544.000000	0.035759
543.000000	0.035720
542.000000	0.035658
541.000000	0.035661
540.000000	0.035727
539.000000	0.035761
538.000000	0.035807
537.000000	0.035849
536.000000	0.035798
535.000000	0.035888
534.000000	0.035827
533.000000	0.035887
532.000000	0.035936
531.000000	0.035930
530.000000	0.035925
529.000000	0.035939
528.000000	0.035982
527.000000	0.036099
526.000000	0.036130
525.000000	0.036116
524.000000	0.036124
523.000000	0.036173
522.000000	0.036244
521.000000	0.036271
520.000000	0.036315
519.000000	0.036335
518.000000	0.036303
517.000000	0.036365
516.000000	0.036380
515.000000	0.036410
514.000000	0.036472
513.000000	0.036545
512.000000	0.036547
511.000000	0.036572
510.000000	0.036592
509.000000	0.036612
508.000000	0.036618
507.000000	0.036655
506.000000	0.036692
505.000000	0.036710
504.000000	0.036711
503.000000	0.036718
502.000000	0.036717
501.000000	0.036685
500.000000	0.036631
499.000000	0.036673
498.000000	0.036600
497.000000	0.036541
496.000000	0.036676
495.000000	0.036751
494.000000	0.036742
493.000000	0.036731
492.000000	0.036714
491.000000	0.036748
490.000000	0.036785
489.000000	0.036770
488.000000	0.036726
487.000000	0.036756
486.000000	0.036754
485.000000	0.036731
484.000000	0.036788
483.000000	0.036746
482.000000	0.036702
481.000000	0.036717
480.000000	0.036790
479.000000	0.036845
478.000000	0.036839
477.000000	0.036835
476.000000	0.036850
475.000000	0.036876
474.000000	0.036932
473.000000	0.036971
472.000000	0.037003
471.000000	0.036964
470.000000	0.036922
469.000000	0.036954
468.000000	0.036970
467.000000	0.037052
466.000000	0.037093
465.000000	0.037058
464.000000	0.037078
463.000000	0.037184
462.000000	0.037255
461.000000	0.037313
460.000000	0.037385
459.000000	0.037384
458.000000	0.037426
457.000000	0.037476
456.000000	0.037512
455.000000	0.037561
454.000000	0.037627
453.000000	0.037613
452.000000	0.037701
451.000000	0.037776
450.000000	0.037815
449.000000	0.037919
448.000000	0.037992
447.000000	0.037954
446.000000	0.038123
445.000000	0.038189
444.000000	0.038234
443.000000	0.038303
442.000000	0.038393
441.000000	0.038423
440.000000	0.038510
439.000000	0.038649
438.000000	0.038678
437.000000	0.038848
436.000000	0.038870
435.000000	0.038885
434.000000	0.038920
433.000000	0.039047
432.000000	0.039219
431.000000	0.039277
430.000000	0.039395
429.000000	0.039493
428.000000	0.039521
427.000000	0.039636
426.000000	0.039712
425.000000	0.039760
424.000000	0.039875
423.000000	0.039868
422.000000	0.039929
421.000000	0.040024
420.000000	0.040087
419.000000	0.040219
418.000000	0.040286
417.000000	0.040263
416.000000	0.040404
415.000000	0.040566
414.000000	0.040635
413.000000	0.040657
412.000000	0.040740
411.000000	0.040718
410.000000	0.040845
409.000000	0.040914
408.000000	0.040904
407.000000	0.041029
406.000000	0.041068
405.000000	0.040985
404.000000	0.041123
403.000000	0.041190
402.000000	0.041252
401.000000	0.041272
400.000000	0.041256
399.000000	0.041289
398.000000	0.041314
397.000000	0.041435
396.000000	0.041426
395.000000	0.041510
394.000000	0.041555
393.000000	0.041515
392.000000	0.041544
391.000000	0.041702
390.000000	0.041833
389.000000	0.041810
388.000000	0.041817
387.000000	0.041839
386.000000	0.041999
385.000000	0.042049
384.000000	0.041920
383.000000	0.042132
382.000000	0.042185
381.000000	0.042088
380.000000	0.042274
379.000000	0.042462
378.000000	0.042270
377.000000	0.042142
376.000000	0.042244
375.000000	0.042420
374.000000	0.042485
373.000000	0.042571
372.000000	0.042671
371.000000	0.042822
370.000000	0.043005
369.000000	0.042992
368.000000	0.043143
367.000000	0.043159
366.000000	0.043332
365.000000	0.043373
364.000000	0.043536
363.000000	0.043590
362.000000	0.043855
361.000000	0.043928
360.000000	0.044058
359.000000	0.044105
358.000000	0.044192
357.000000	0.044224
356.000000	0.044370
355.000000	0.044539
354.000000	0.044654
353.000000	0.044827
352.000000	0.044870
351.000000	0.045033
350.000000	0.045115
349.000000	0.045282
348.000000	0.045382
347.000000	0.045459
346.000000	0.045659
345.000000	0.045769
344.000000	0.045807
343.000000	0.045964
342.000000	0.046084
341.000000	0.046114
340.000000	0.046388
339.000000	0.046504
338.000000	0.046616
337.000000	0.046814
336.000000	0.046905
335.000000	0.046965
334.000000	0.047244
333.000000	0.047362
332.000000	0.047487
331.000000	0.047645
330.000000	0.047784
329.000000	0.047900
328.000000	0.048106
327.000000	0.048305
326.000000	0.048468
325.000000	0.048651
324.000000	0.048875
323.000000	0.048974
322.000000	0.049125
321.000000	0.049289
320.000000	0.049457
319.000000	0.049757
318.000000	0.049010
317.000000	0.047106
316.000000	0.047376
315.000000	0.047595
314.000000	0.047844
313.000000	0.048008
312.000000	0.048131
311.000000	0.048393
310.000000	0.048623
309.000000	0.048792
308.000000	0.048936
307.000000	0.049153
306.000000	0.049320
305.000000	0.049505
304.000000	0.049760
303.000000	0.050125
302.000000	0.050343
301.000000	0.050494
300.000000	0.050740
299.000000	0.050999
298.000000	0.051204
297.000000	0.051448
296.000000	0.051670
295.000000	0.051895
294.000000	0.052153
293.000000	0.052415
292.000000	0.052691
291.000000	0.052999
290.000000	0.053306
289.000000	0.053593
288.000000	0.053850
287.000000	0.054200
286.000000	0.054537
285.000000	0.054810
284.000000	0.055105
283.000000	0.055340
282.000000	0.055608
281.000000	0.055875
280.000000	0.056141
279.000000	0.056394
278.000000	0.056667
277.000000	0.056926
276.000000	0.057184
275.000000	0.057380
274.000000	0.057563
273.000000	0.057798
272.000000	0.058033
271.000000	0.058329
270.000000	0.058575
269.000000	0.058685
268.000000	0.058882
267.000000	0.059170
266.000000	0.059520
265.000000	0.059854
264.000000	0.060074
263.000000	0.060298
262.000000	0.060631
261.000000	0.060985
260.000000	0.061321
259.000000	0.061697
258.000000	0.062170
257.000000	0.062590
256.000000	0.063038
255.000000	0.063455
254.000000	0.063882
253.000000	0.064382
252.000000	0.064929
251.000000	0.065472
250.000000	0.066102
249.000000	0.066697
248.000000	0.067292
247.000000	0.067965
246.000000	0.068546
245.000000	0.069131
244.000000	0.069806
243.000000	0.070492
242.000000	0.071267
241.000000	0.071952
240.000000	0.072715
239.000000	0.073509
238.000000	0.074269
237.000000	0.075199
236.000000	0.076048
235.000000	0.076900
234.000000	0.077791
233.000000	0.078651
232.000000	0.079573
231.000000	0.080544
230.000000	0.081541
229.000000	0.082373
228.000000	0.083432
227.000000	0.084384
226.000000	0.085342
225.000000	0.086503
224.000000	0.087579
223.000000	0.088739
222.000000	0.089957
221.000000	0.091191
220.000000	0.092776
219.000000	0.094375
218.000000	0.095997
217.000000	0.097902
216.000000	0.099904
215.000000	0.102301
214.000000	0.104663
213.000000	0.107424
212.000000	0.110329
211.000000	0.113550
210.000000	0.116967
209.000000	0.120593
208.000000	0.124650
207.000000	0.128846
206.000000	0.133349
205.000000	0.138290
204.000000	0.143538
203.000000	0.149013
202.000000	0.154766
201.000000	0.160822
200.000000	0.167264
