PE UV       SUBTECH     SPECTRUM    ASCII       PEDS        4.00        
   -1
MQ21410.Sample.Raw.asc
11/10/14
13:43:41.00
11/10/14
13:43:41.00
Hermanni Kaartokallio

200.000000
1
Lambda 650
650N8121101
PerkinElmer UV WinLab 6.0.2.0723 / 1.61.00 Lambda 650

0
0
2
0
0
UV/VIS
1
1
1
uv/vis/nir detector
0
0
0
0
Fix
 
0
0.24
0
0
0
 
 
 
0
 
0
319.2
0
Front
100
 
 
 
0
0
0
 
0
 
 
 
0
 
 
0
0
0
0
0
 
 
 
 
0
0
#HDR
-1
-1
#GR
nm
A
1.0
0.0
800.000000
-1.000000
601
8
0.171394
0.034839
#DATA
800.000000	0.042491
799.000000	0.042502
798.000000	0.042769
797.000000	0.042771
796.000000	0.042834
795.000000	0.042784
794.000000	0.042978
793.000000	0.042952
792.000000	0.043000
791.000000	0.043113
790.000000	0.043086
789.000000	0.043330
788.000000	0.043302
787.000000	0.043376
786.000000	0.043461
785.000000	0.043504
784.000000	0.043555
783.000000	0.043656
782.000000	0.043693
781.000000	0.043760
780.000000	0.043775
779.000000	0.043909
778.000000	0.043998
777.000000	0.044051
776.000000	0.044004
775.000000	0.044045
774.000000	0.044005
773.000000	0.043992
772.000000	0.044108
771.000000	0.044154
770.000000	0.044224
769.000000	0.044263
768.000000	0.044328
767.000000	0.044348
766.000000	0.044376
765.000000	0.044447
764.000000	0.044460
763.000000	0.044463
762.000000	0.044428
761.000000	0.044500
760.000000	0.044618
759.000000	0.044604
758.000000	0.044690
757.000000	0.044729
756.000000	0.044780
755.000000	0.044677
754.000000	0.044843
753.000000	0.044852
752.000000	0.044831
751.000000	0.044822
750.000000	0.044795
749.000000	0.044864
748.000000	0.044788
747.000000	0.044758
746.000000	0.044784
745.000000	0.044801
744.000000	0.044793
743.000000	0.044751
742.000000	0.044793
741.000000	0.044674
740.000000	0.044533
739.000000	0.044490
738.000000	0.044330
737.000000	0.044126
736.000000	0.043886
735.000000	0.043538
734.000000	0.043200
733.000000	0.042719
732.000000	0.042189
731.000000	0.041743
730.000000	0.041225
729.000000	0.040797
728.000000	0.040400
727.000000	0.039952
726.000000	0.039482
725.000000	0.039281
724.000000	0.039155
723.000000	0.038927
722.000000	0.038699
721.000000	0.038543
720.000000	0.038453
719.000000	0.038176
718.000000	0.037919
717.000000	0.037674
716.000000	0.037494
715.000000	0.037222
714.000000	0.037018
713.000000	0.036936
712.000000	0.036767
711.000000	0.036538
710.000000	0.036427
709.000000	0.036270
708.000000	0.036080
707.000000	0.036088
706.000000	0.036052
705.000000	0.035924
704.000000	0.035817
703.000000	0.035676
702.000000	0.035602
701.000000	0.035587
700.000000	0.035534
699.000000	0.035533
698.000000	0.035463
697.000000	0.035298
696.000000	0.035269
695.000000	0.035319
694.000000	0.035273
693.000000	0.035203
692.000000	0.035201
691.000000	0.035157
690.000000	0.034997
689.000000	0.035066
688.000000	0.035127
687.000000	0.034998
686.000000	0.034985
685.000000	0.035018
684.000000	0.035013
683.000000	0.035011
682.000000	0.034957
681.000000	0.034983
680.000000	0.034943
679.000000	0.034898
678.000000	0.034963
677.000000	0.034948
676.000000	0.034888
675.000000	0.034839
674.000000	0.034875
673.000000	0.034947
672.000000	0.034949
671.000000	0.034985
670.000000	0.035210
669.000000	0.035164
668.000000	0.035132
667.000000	0.035071
666.000000	0.035000
665.000000	0.034986
664.000000	0.034992
663.000000	0.034980
662.000000	0.035035
661.000000	0.034992
660.000000	0.035008
659.000000	0.035024
658.000000	0.034888
657.000000	0.034884
656.000000	0.034928
655.000000	0.034975
654.000000	0.034961
653.000000	0.034966
652.000000	0.034996
651.000000	0.034998
650.000000	0.034943
649.000000	0.034989
648.000000	0.035045
647.000000	0.035029
646.000000	0.035007
645.000000	0.035049
644.000000	0.035026
643.000000	0.035044
642.000000	0.035109
641.000000	0.035162
640.000000	0.035132
639.000000	0.035107
638.000000	0.035133
637.000000	0.035172
636.000000	0.035150
635.000000	0.035157
634.000000	0.035131
633.000000	0.035048
632.000000	0.035155
631.000000	0.035236
630.000000	0.035308
629.000000	0.035299
628.000000	0.035204
627.000000	0.035273
626.000000	0.035269
625.000000	0.035309
624.000000	0.035330
623.000000	0.035413
622.000000	0.035364
621.000000	0.035334
620.000000	0.035426
619.000000	0.035523
618.000000	0.035537
617.000000	0.035469
616.000000	0.035506
615.000000	0.035536
614.000000	0.035634
613.000000	0.035563
612.000000	0.035743
611.000000	0.035740
610.000000	0.035699
609.000000	0.035704
608.000000	0.035818
607.000000	0.035785
606.000000	0.035831
605.000000	0.035884
604.000000	0.035938
603.000000	0.035894
602.000000	0.035916
601.000000	0.036033
600.000000	0.036053
599.000000	0.035951
598.000000	0.035916
597.000000	0.036043
596.000000	0.035934
595.000000	0.035983
594.000000	0.036029
593.000000	0.036070
592.000000	0.035964
591.000000	0.035905
590.000000	0.035989
589.000000	0.035975
588.000000	0.035957
587.000000	0.036061
586.000000	0.036039
585.000000	0.035934
584.000000	0.035991
583.000000	0.036049
582.000000	0.035988
581.000000	0.035978
580.000000	0.035971
579.000000	0.036048
578.000000	0.035942
577.000000	0.035973
576.000000	0.035975
575.000000	0.036044
574.000000	0.035975
573.000000	0.035944
572.000000	0.035995
571.000000	0.035975
570.000000	0.035997
569.000000	0.036080
568.000000	0.036116
567.000000	0.035947
566.000000	0.035982
565.000000	0.036075
564.000000	0.036098
563.000000	0.036043
562.000000	0.036051
561.000000	0.036012
560.000000	0.035887
559.000000	0.035918
558.000000	0.036053
557.000000	0.036038
556.000000	0.036017
555.000000	0.036041
554.000000	0.036071
553.000000	0.035987
552.000000	0.035927
551.000000	0.036035
550.000000	0.035978
549.000000	0.035948
548.000000	0.035993
547.000000	0.036088
546.000000	0.036003
545.000000	0.035952
544.000000	0.036075
543.000000	0.036100
542.000000	0.035969
541.000000	0.036026
540.000000	0.036164
539.000000	0.036140
538.000000	0.036144
537.000000	0.036209
536.000000	0.036260
535.000000	0.036249
534.000000	0.036203
533.000000	0.036347
532.000000	0.036408
531.000000	0.036390
530.000000	0.036393
529.000000	0.036527
528.000000	0.036563
527.000000	0.036538
526.000000	0.036643
525.000000	0.036732
524.000000	0.036671
523.000000	0.036664
522.000000	0.036809
521.000000	0.036881
520.000000	0.036908
519.000000	0.036892
518.000000	0.036966
517.000000	0.037067
516.000000	0.037053
515.000000	0.037178
514.000000	0.037288
513.000000	0.037265
512.000000	0.037238
511.000000	0.037355
510.000000	0.037447
509.000000	0.037406
508.000000	0.037407
507.000000	0.037507
506.000000	0.037545
505.000000	0.037549
504.000000	0.037606
503.000000	0.037639
502.000000	0.037593
501.000000	0.037604
500.000000	0.037645
499.000000	0.037669
498.000000	0.037598
497.000000	0.037586
496.000000	0.037752
495.000000	0.037750
494.000000	0.037691
493.000000	0.037790
492.000000	0.037821
491.000000	0.037778
490.000000	0.037842
489.000000	0.037892
488.000000	0.037843
487.000000	0.037838
486.000000	0.037860
485.000000	0.037897
484.000000	0.037951
483.000000	0.037899
482.000000	0.037922
481.000000	0.037943
480.000000	0.037974
479.000000	0.038021
478.000000	0.038009
477.000000	0.037985
476.000000	0.037978
475.000000	0.038025
474.000000	0.038109
473.000000	0.038122
472.000000	0.038097
471.000000	0.038158
470.000000	0.038177
469.000000	0.038165
468.000000	0.038235
467.000000	0.038326
466.000000	0.038308
465.000000	0.038245
464.000000	0.038341
463.000000	0.038495
462.000000	0.038524
461.000000	0.038550
460.000000	0.038666
459.000000	0.038643
458.000000	0.038641
457.000000	0.038743
456.000000	0.038857
455.000000	0.038884
454.000000	0.038902
453.000000	0.038996
452.000000	0.039103
451.000000	0.039103
450.000000	0.039094
449.000000	0.039275
448.000000	0.039311
447.000000	0.039314
446.000000	0.039414
445.000000	0.039587
444.000000	0.039519
443.000000	0.039549
442.000000	0.039796
441.000000	0.039862
440.000000	0.039818
439.000000	0.039933
438.000000	0.040136
437.000000	0.040217
436.000000	0.040214
435.000000	0.040442
434.000000	0.040601
433.000000	0.040640
432.000000	0.040583
431.000000	0.040736
430.000000	0.040817
429.000000	0.040802
428.000000	0.040906
427.000000	0.041184
426.000000	0.041147
425.000000	0.041115
424.000000	0.041332
423.000000	0.041437
422.000000	0.041376
421.000000	0.041466
420.000000	0.041672
419.000000	0.041716
418.000000	0.041739
417.000000	0.041851
416.000000	0.041999
415.000000	0.042036
414.000000	0.042100
413.000000	0.042224
412.000000	0.042292
411.000000	0.042293
410.000000	0.042340
409.000000	0.042491
408.000000	0.042566
407.000000	0.042512
406.000000	0.042692
405.000000	0.042707
404.000000	0.042681
403.000000	0.042673
402.000000	0.042853
401.000000	0.042899
400.000000	0.042815
399.000000	0.042828
398.000000	0.043165
397.000000	0.043215
396.000000	0.043100
395.000000	0.043258
394.000000	0.043403
393.000000	0.043292
392.000000	0.043188
391.000000	0.043520
390.000000	0.043576
389.000000	0.043526
388.000000	0.043649
387.000000	0.043716
386.000000	0.043844
385.000000	0.043778
384.000000	0.043797
383.000000	0.044035
382.000000	0.043917
381.000000	0.043799
380.000000	0.044143
379.000000	0.044300
378.000000	0.043894
377.000000	0.043943
376.000000	0.044173
375.000000	0.044131
374.000000	0.044308
373.000000	0.044410
372.000000	0.044453
371.000000	0.044522
370.000000	0.044730
369.000000	0.044948
368.000000	0.044985
367.000000	0.044941
366.000000	0.045171
365.000000	0.045216
364.000000	0.045340
363.000000	0.045343
362.000000	0.045492
361.000000	0.045621
360.000000	0.045656
359.000000	0.045871
358.000000	0.046126
357.000000	0.046100
356.000000	0.046242
355.000000	0.046359
354.000000	0.046528
353.000000	0.046624
352.000000	0.046469
351.000000	0.046990
350.000000	0.047167
349.000000	0.047046
348.000000	0.047225
347.000000	0.047384
346.000000	0.047254
345.000000	0.047482
344.000000	0.047646
343.000000	0.047737
342.000000	0.047830
341.000000	0.048034
340.000000	0.048209
339.000000	0.048348
338.000000	0.048492
337.000000	0.048677
336.000000	0.048854
335.000000	0.048850
334.000000	0.049111
333.000000	0.049267
332.000000	0.049383
331.000000	0.049469
330.000000	0.049631
329.000000	0.049852
328.000000	0.049946
327.000000	0.050105
326.000000	0.050325
325.000000	0.050617
324.000000	0.050702
323.000000	0.050843
322.000000	0.051016
321.000000	0.051188
320.000000	0.051310
319.000000	0.051587
318.000000	0.050832
317.000000	0.048749
316.000000	0.048969
315.000000	0.049276
314.000000	0.049639
313.000000	0.049652
312.000000	0.049357
311.000000	0.049482
310.000000	0.049756
309.000000	0.050077
308.000000	0.050179
307.000000	0.050314
306.000000	0.050600
305.000000	0.050892
304.000000	0.051044
303.000000	0.051220
302.000000	0.051517
301.000000	0.051774
300.000000	0.051940
299.000000	0.052117
298.000000	0.052351
297.000000	0.052641
296.000000	0.052849
295.000000	0.053155
294.000000	0.053528
293.000000	0.053709
292.000000	0.053961
291.000000	0.054376
290.000000	0.054673
289.000000	0.054809
288.000000	0.055114
287.000000	0.055519
286.000000	0.055791
285.000000	0.056013
284.000000	0.056349
283.000000	0.056625
282.000000	0.056845
281.000000	0.057110
280.000000	0.057362
279.000000	0.057620
278.000000	0.057904
277.000000	0.058179
276.000000	0.058521
275.000000	0.058769
274.000000	0.058932
273.000000	0.059219
272.000000	0.059461
271.000000	0.059690
270.000000	0.059961
269.000000	0.060238
268.000000	0.060448
267.000000	0.060606
266.000000	0.060903
265.000000	0.061307
264.000000	0.061547
263.000000	0.061795
262.000000	0.062148
261.000000	0.062591
260.000000	0.062872
259.000000	0.063223
258.000000	0.063749
257.000000	0.064136
256.000000	0.064423
255.000000	0.064881
254.000000	0.065407
253.000000	0.065943
252.000000	0.066453
251.000000	0.067016
250.000000	0.067593
249.000000	0.068158
248.000000	0.068801
247.000000	0.069458
246.000000	0.070088
245.000000	0.070783
244.000000	0.071516
243.000000	0.072225
242.000000	0.072757
241.000000	0.073499
240.000000	0.074326
239.000000	0.075089
238.000000	0.075800
237.000000	0.076780
236.000000	0.077689
235.000000	0.078562
234.000000	0.079545
233.000000	0.080571
232.000000	0.081533
231.000000	0.082422
230.000000	0.083468
229.000000	0.084514
228.000000	0.085578
227.000000	0.086523
226.000000	0.087574
225.000000	0.088830
224.000000	0.089976
223.000000	0.091093
222.000000	0.092474
221.000000	0.093788
220.000000	0.095342
219.000000	0.097091
218.000000	0.098965
217.000000	0.100953
216.000000	0.103004
215.000000	0.105472
214.000000	0.108034
213.000000	0.110820
212.000000	0.113872
211.000000	0.117176
210.000000	0.120615
209.000000	0.124418
208.000000	0.128416
207.000000	0.132752
206.000000	0.137391
205.000000	0.142306
204.000000	0.147451
203.000000	0.153063
202.000000	0.158733
201.000000	0.164870
200.000000	0.171394
