PE UV       SUBTECH     SPECTRUM    ASCII       PEDS        4.00        
   -1
TV6-03B.Sample.Raw.asc
11/10/14
12:47:23.00
11/10/14
12:47:23.00
Hermanni Kaartokallio

200.000000
1
Lambda 650
650N8121101
PerkinElmer UV WinLab 6.0.2.0723 / 1.61.00 Lambda 650

0
0
2
0
0
UV/VIS
1
1
1
uv/vis/nir detector
0
0
0
0
Fix
 
0
0.24
0
0
0
 
 
 
0
 
0
319.2
0
Front
100
 
 
 
0
0
0
 
0
 
 
 
0
 
 
0
0
0
0
0
 
 
 
 
0
0
#HDR
-1
-1
#GR
nm
A
1.0
0.0
800.000000
-1.000000
601
8
3.126269
0.034914
#DATA
800.000000	0.042795
799.000000	0.042865
798.000000	0.042978
797.000000	0.042939
796.000000	0.043064
795.000000	0.043062
794.000000	0.043237
793.000000	0.043258
792.000000	0.043334
791.000000	0.043270
790.000000	0.043248
789.000000	0.043573
788.000000	0.043613
787.000000	0.043560
786.000000	0.043492
785.000000	0.043776
784.000000	0.043832
783.000000	0.043787
782.000000	0.043929
781.000000	0.044090
780.000000	0.043993
779.000000	0.044120
778.000000	0.044317
777.000000	0.044351
776.000000	0.044227
775.000000	0.044431
774.000000	0.044376
773.000000	0.044310
772.000000	0.044381
771.000000	0.044377
770.000000	0.044515
769.000000	0.044468
768.000000	0.044462
767.000000	0.044621
766.000000	0.044627
765.000000	0.044510
764.000000	0.044611
763.000000	0.044774
762.000000	0.044649
761.000000	0.044672
760.000000	0.044820
759.000000	0.044909
758.000000	0.044911
757.000000	0.044811
756.000000	0.044961
755.000000	0.044931
754.000000	0.044944
753.000000	0.045006
752.000000	0.045164
751.000000	0.045001
750.000000	0.044955
749.000000	0.045063
748.000000	0.045050
747.000000	0.044916
746.000000	0.044965
745.000000	0.044994
744.000000	0.044926
743.000000	0.044882
742.000000	0.044929
741.000000	0.044922
740.000000	0.044733
739.000000	0.044603
738.000000	0.044596
737.000000	0.044385
736.000000	0.044019
735.000000	0.043711
734.000000	0.043420
733.000000	0.042933
732.000000	0.042379
731.000000	0.041967
730.000000	0.041465
729.000000	0.040958
728.000000	0.040528
727.000000	0.040170
726.000000	0.039758
725.000000	0.039479
724.000000	0.039313
723.000000	0.039108
722.000000	0.038820
721.000000	0.038519
720.000000	0.038396
719.000000	0.038268
718.000000	0.038002
717.000000	0.037832
716.000000	0.037705
715.000000	0.037460
714.000000	0.037165
713.000000	0.037097
712.000000	0.036982
711.000000	0.036727
710.000000	0.036582
709.000000	0.036484
708.000000	0.036297
707.000000	0.036197
706.000000	0.036176
705.000000	0.036099
704.000000	0.035992
703.000000	0.035854
702.000000	0.035806
701.000000	0.035788
700.000000	0.035637
699.000000	0.035586
698.000000	0.035615
697.000000	0.035460
696.000000	0.035363
695.000000	0.035423
694.000000	0.035440
693.000000	0.035360
692.000000	0.035285
691.000000	0.035240
690.000000	0.035174
689.000000	0.035218
688.000000	0.035236
687.000000	0.035142
686.000000	0.035051
685.000000	0.035094
684.000000	0.035165
683.000000	0.035098
682.000000	0.035014
681.000000	0.035045
680.000000	0.035071
679.000000	0.035006
678.000000	0.034983
677.000000	0.035007
676.000000	0.035007
675.000000	0.034914
674.000000	0.034956
673.000000	0.035092
672.000000	0.035070
671.000000	0.035006
670.000000	0.035157
669.000000	0.035166
668.000000	0.035070
667.000000	0.035091
666.000000	0.035129
665.000000	0.035116
664.000000	0.035100
663.000000	0.035130
662.000000	0.035215
661.000000	0.035160
660.000000	0.035104
659.000000	0.035164
658.000000	0.035091
657.000000	0.035075
656.000000	0.035051
655.000000	0.035131
654.000000	0.035106
653.000000	0.035038
652.000000	0.035060
651.000000	0.035138
650.000000	0.035070
649.000000	0.035082
648.000000	0.035154
647.000000	0.035170
646.000000	0.035112
645.000000	0.035077
644.000000	0.035149
643.000000	0.035160
642.000000	0.035140
641.000000	0.035183
640.000000	0.035256
639.000000	0.035204
638.000000	0.035189
637.000000	0.035295
636.000000	0.035291
635.000000	0.035234
634.000000	0.035174
633.000000	0.035265
632.000000	0.035331
631.000000	0.035294
630.000000	0.035361
629.000000	0.035367
628.000000	0.035249
627.000000	0.035353
626.000000	0.035340
625.000000	0.035393
624.000000	0.035365
623.000000	0.035461
622.000000	0.035466
621.000000	0.035489
620.000000	0.035452
619.000000	0.035489
618.000000	0.035610
617.000000	0.035532
616.000000	0.035524
615.000000	0.035650
614.000000	0.035721
613.000000	0.035639
612.000000	0.035796
611.000000	0.035876
610.000000	0.035725
609.000000	0.035716
608.000000	0.035908
607.000000	0.035934
606.000000	0.035943
605.000000	0.035915
604.000000	0.035964
603.000000	0.036036
602.000000	0.035950
601.000000	0.036077
600.000000	0.036094
599.000000	0.036008
598.000000	0.035933
597.000000	0.036041
596.000000	0.035985
595.000000	0.035997
594.000000	0.036037
593.000000	0.036067
592.000000	0.036083
591.000000	0.035945
590.000000	0.036001
589.000000	0.036070
588.000000	0.036013
587.000000	0.036058
586.000000	0.036053
585.000000	0.036023
584.000000	0.035994
583.000000	0.036057
582.000000	0.036077
581.000000	0.036090
580.000000	0.035965
579.000000	0.036013
578.000000	0.036076
577.000000	0.036015
576.000000	0.035999
575.000000	0.036123
574.000000	0.036068
573.000000	0.035986
572.000000	0.036018
571.000000	0.036052
570.000000	0.036061
569.000000	0.036105
568.000000	0.036134
567.000000	0.036083
566.000000	0.036063
565.000000	0.036053
564.000000	0.036193
563.000000	0.036150
562.000000	0.036072
561.000000	0.036064
560.000000	0.035965
559.000000	0.035980
558.000000	0.036111
557.000000	0.036122
556.000000	0.036096
555.000000	0.036058
554.000000	0.036155
553.000000	0.036119
552.000000	0.035994
551.000000	0.036069
550.000000	0.036054
549.000000	0.036068
548.000000	0.035986
547.000000	0.036073
546.000000	0.036106
545.000000	0.036089
544.000000	0.036141
543.000000	0.036201
542.000000	0.036125
541.000000	0.036120
540.000000	0.036208
539.000000	0.036292
538.000000	0.036295
537.000000	0.036284
536.000000	0.036308
535.000000	0.036379
534.000000	0.036304
533.000000	0.036421
532.000000	0.036480
531.000000	0.036421
530.000000	0.036444
529.000000	0.036570
528.000000	0.036654
527.000000	0.036658
526.000000	0.036657
525.000000	0.036705
524.000000	0.036774
523.000000	0.036814
522.000000	0.036920
521.000000	0.037029
520.000000	0.037044
519.000000	0.037004
518.000000	0.037034
517.000000	0.037182
516.000000	0.037183
515.000000	0.037203
514.000000	0.037347
513.000000	0.037385
512.000000	0.037347
511.000000	0.037379
510.000000	0.037511
509.000000	0.037525
508.000000	0.037505
507.000000	0.037579
506.000000	0.037642
505.000000	0.037637
504.000000	0.037657
503.000000	0.037704
502.000000	0.037728
501.000000	0.037713
500.000000	0.037730
499.000000	0.037819
498.000000	0.037752
497.000000	0.037715
496.000000	0.037866
495.000000	0.037918
494.000000	0.037889
493.000000	0.037906
492.000000	0.037969
491.000000	0.038012
490.000000	0.038041
489.000000	0.038060
488.000000	0.038053
487.000000	0.038094
486.000000	0.038096
485.000000	0.038128
484.000000	0.038183
483.000000	0.038142
482.000000	0.038160
481.000000	0.038200
480.000000	0.038227
479.000000	0.038251
478.000000	0.038274
477.000000	0.038287
476.000000	0.038312
475.000000	0.038347
474.000000	0.038461
473.000000	0.038465
472.000000	0.038462
471.000000	0.038563
470.000000	0.038578
469.000000	0.038591
468.000000	0.038607
467.000000	0.038736
466.000000	0.038816
465.000000	0.038867
464.000000	0.038900
463.000000	0.038977
462.000000	0.039040
461.000000	0.039026
460.000000	0.039119
459.000000	0.039199
458.000000	0.039209
457.000000	0.039328
456.000000	0.039447
455.000000	0.039517
454.000000	0.039580
453.000000	0.039640
452.000000	0.039707
451.000000	0.039824
450.000000	0.039868
449.000000	0.040007
448.000000	0.040092
447.000000	0.040106
446.000000	0.040183
445.000000	0.040352
444.000000	0.040460
443.000000	0.040517
442.000000	0.040656
441.000000	0.040802
440.000000	0.040884
439.000000	0.040988
438.000000	0.041171
437.000000	0.041370
436.000000	0.041358
435.000000	0.041402
434.000000	0.041578
433.000000	0.041742
432.000000	0.041802
431.000000	0.041941
430.000000	0.042174
429.000000	0.042226
428.000000	0.042259
427.000000	0.042515
426.000000	0.042646
425.000000	0.042766
424.000000	0.042874
423.000000	0.043020
422.000000	0.043103
421.000000	0.043183
420.000000	0.043328
419.000000	0.043544
418.000000	0.043613
417.000000	0.043683
416.000000	0.043836
415.000000	0.044015
414.000000	0.044201
413.000000	0.044305
412.000000	0.044474
411.000000	0.044497
410.000000	0.044617
409.000000	0.044797
408.000000	0.044934
407.000000	0.045019
406.000000	0.045147
405.000000	0.045256
404.000000	0.045350
403.000000	0.045471
402.000000	0.045567
401.000000	0.045698
400.000000	0.045740
399.000000	0.045789
398.000000	0.046084
397.000000	0.046255
396.000000	0.046299
395.000000	0.046369
394.000000	0.046550
393.000000	0.046714
392.000000	0.046634
391.000000	0.046914
390.000000	0.047120
389.000000	0.047248
388.000000	0.047288
387.000000	0.047528
386.000000	0.047714
385.000000	0.047800
384.000000	0.047947
383.000000	0.048260
382.000000	0.048327
381.000000	0.048337
380.000000	0.048628
379.000000	0.048923
378.000000	0.048978
377.000000	0.049017
376.000000	0.049192
375.000000	0.049490
374.000000	0.049755
373.000000	0.049955
372.000000	0.050116
371.000000	0.050547
370.000000	0.050620
369.000000	0.050838
368.000000	0.051134
367.000000	0.051423
366.000000	0.051700
365.000000	0.051919
364.000000	0.052173
363.000000	0.052305
362.000000	0.052604
361.000000	0.053049
360.000000	0.053331
359.000000	0.053518
358.000000	0.053846
357.000000	0.054106
356.000000	0.054404
355.000000	0.054756
354.000000	0.055150
353.000000	0.055470
352.000000	0.055658
351.000000	0.056019
350.000000	0.056441
349.000000	0.056824
348.000000	0.057059
347.000000	0.057365
346.000000	0.057743
345.000000	0.058103
344.000000	0.058454
343.000000	0.058905
342.000000	0.059187
341.000000	0.059593
340.000000	0.060071
339.000000	0.060402
338.000000	0.060814
337.000000	0.061253
336.000000	0.061691
335.000000	0.062031
334.000000	0.062550
333.000000	0.063011
332.000000	0.063557
331.000000	0.064003
330.000000	0.064465
329.000000	0.064941
328.000000	0.065497
327.000000	0.066009
326.000000	0.066578
325.000000	0.067156
324.000000	0.067737
323.000000	0.068278
322.000000	0.068872
321.000000	0.069477
320.000000	0.070102
319.000000	0.070680
318.000000	0.070186
317.000000	0.068471
316.000000	0.069119
315.000000	0.069806
314.000000	0.070624
313.000000	0.071356
312.000000	0.072035
311.000000	0.072765
310.000000	0.073458
309.000000	0.074307
308.000000	0.075185
307.000000	0.076025
306.000000	0.076903
305.000000	0.077916
304.000000	0.078753
303.000000	0.079754
302.000000	0.080876
301.000000	0.081914
300.000000	0.082979
299.000000	0.084039
298.000000	0.085187
297.000000	0.086425
296.000000	0.087569
295.000000	0.088828
294.000000	0.090199
293.000000	0.091496
292.000000	0.092856
291.000000	0.094295
290.000000	0.095769
289.000000	0.097246
288.000000	0.098689
287.000000	0.100175
286.000000	0.101744
285.000000	0.103229
284.000000	0.104795
283.000000	0.106357
282.000000	0.107843
281.000000	0.109342
280.000000	0.110829
279.000000	0.112440
278.000000	0.114013
277.000000	0.115533
276.000000	0.117110
275.000000	0.118702
274.000000	0.120253
273.000000	0.121762
272.000000	0.123299
271.000000	0.124869
270.000000	0.126410
269.000000	0.127874
268.000000	0.129312
267.000000	0.130810
266.000000	0.132329
265.000000	0.133814
264.000000	0.135182
263.000000	0.136531
262.000000	0.137999
261.000000	0.139472
260.000000	0.140784
259.000000	0.142070
258.000000	0.143436
257.000000	0.144694
256.000000	0.145932
255.000000	0.147305
254.000000	0.148634
253.000000	0.149960
252.000000	0.151340
251.000000	0.152774
250.000000	0.154306
249.000000	0.155838
248.000000	0.157500
247.000000	0.159215
246.000000	0.160941
245.000000	0.162733
244.000000	0.164694
243.000000	0.166808
242.000000	0.169110
241.000000	0.171473
240.000000	0.173943
239.000000	0.176555
238.000000	0.179304
237.000000	0.182263
236.000000	0.185329
235.000000	0.188497
234.000000	0.191828
233.000000	0.195397
232.000000	0.199078
231.000000	0.202868
230.000000	0.206874
229.000000	0.211016
228.000000	0.215417
227.000000	0.220081
226.000000	0.225125
225.000000	0.230866
224.000000	0.237056
223.000000	0.244024
222.000000	0.252204
221.000000	0.261695
220.000000	0.272980
219.000000	0.286508
218.000000	0.302725
217.000000	0.322516
216.000000	0.346939
215.000000	0.376793
214.000000	0.412938
213.000000	0.457558
212.000000	0.511483
211.000000	0.576555
210.000000	0.653706
209.000000	0.745434
208.000000	0.853679
207.000000	0.981782
206.000000	1.134657
205.000000	1.316886
204.000000	1.535857
203.000000	1.805413
202.000000	2.140626
201.000000	2.566475
200.000000	3.126269
