PE UV       SUBTECH     SPECTRUM    ASCII       PEDS        4.00        
   -1
TV6-02B.Sample.Raw.asc
11/10/14
12:38:36.00
11/10/14
12:38:36.00
Hermanni Kaartokallio

200.000000
1
Lambda 650
650N8121101
PerkinElmer UV WinLab 6.0.2.0723 / 1.61.00 Lambda 650

0
0
2
0
0
UV/VIS
1
1
1
uv/vis/nir detector
0
0
0
0
Fix
 
0
0.24
0
0
0
 
 
 
0
 
0
319.2
0
Front
100
 
 
 
0
0
0
 
0
 
 
 
0
 
 
0
0
0
0
0
 
 
 
 
0
0
#HDR
-1
-1
#GR
nm
A
1.0
0.0
800.000000
-1.000000
601
8
2.627589
0.035722
#DATA
800.000000	0.043351
799.000000	0.043412
798.000000	0.043522
797.000000	0.043612
796.000000	0.043724
795.000000	0.043741
794.000000	0.043795
793.000000	0.043789
792.000000	0.043926
791.000000	0.043933
790.000000	0.043949
789.000000	0.044177
788.000000	0.044237
787.000000	0.044228
786.000000	0.044168
785.000000	0.044392
784.000000	0.044485
783.000000	0.044455
782.000000	0.044525
781.000000	0.044804
780.000000	0.044645
779.000000	0.044792
778.000000	0.044815
777.000000	0.044976
776.000000	0.044876
775.000000	0.044888
774.000000	0.044988
773.000000	0.044960
772.000000	0.044959
771.000000	0.044968
770.000000	0.045129
769.000000	0.045137
768.000000	0.045184
767.000000	0.045246
766.000000	0.045306
765.000000	0.045221
764.000000	0.045255
763.000000	0.045388
762.000000	0.045349
761.000000	0.045353
760.000000	0.045496
759.000000	0.045551
758.000000	0.045566
757.000000	0.045487
756.000000	0.045633
755.000000	0.045598
754.000000	0.045683
753.000000	0.045632
752.000000	0.045740
751.000000	0.045718
750.000000	0.045616
749.000000	0.045732
748.000000	0.045763
747.000000	0.045692
746.000000	0.045615
745.000000	0.045612
744.000000	0.045651
743.000000	0.045581
742.000000	0.045648
741.000000	0.045685
740.000000	0.045511
739.000000	0.045338
738.000000	0.045262
737.000000	0.045098
736.000000	0.044744
735.000000	0.044389
734.000000	0.044071
733.000000	0.043627
732.000000	0.043085
731.000000	0.042668
730.000000	0.042228
729.000000	0.041739
728.000000	0.041233
727.000000	0.040868
726.000000	0.040521
725.000000	0.040273
724.000000	0.040045
723.000000	0.039843
722.000000	0.039572
721.000000	0.039228
720.000000	0.039128
719.000000	0.039027
718.000000	0.038735
717.000000	0.038522
716.000000	0.038376
715.000000	0.038154
714.000000	0.037898
713.000000	0.037761
712.000000	0.037636
711.000000	0.037449
710.000000	0.037318
709.000000	0.037211
708.000000	0.037093
707.000000	0.037002
706.000000	0.036893
705.000000	0.036805
704.000000	0.036720
703.000000	0.036546
702.000000	0.036493
701.000000	0.036535
700.000000	0.036456
699.000000	0.036348
698.000000	0.036329
697.000000	0.036217
696.000000	0.036112
695.000000	0.036145
694.000000	0.036133
693.000000	0.036034
692.000000	0.035981
691.000000	0.036045
690.000000	0.035952
689.000000	0.035898
688.000000	0.035938
687.000000	0.035908
686.000000	0.035845
685.000000	0.035852
684.000000	0.035906
683.000000	0.035892
682.000000	0.035780
681.000000	0.035777
680.000000	0.035812
679.000000	0.035822
678.000000	0.035805
677.000000	0.035814
676.000000	0.035842
675.000000	0.035755
674.000000	0.035722
673.000000	0.035847
672.000000	0.035879
671.000000	0.035839
670.000000	0.035896
669.000000	0.035916
668.000000	0.035899
667.000000	0.035912
666.000000	0.035949
665.000000	0.035945
664.000000	0.035879
663.000000	0.035899
662.000000	0.036008
661.000000	0.036033
660.000000	0.035975
659.000000	0.035992
658.000000	0.035888
657.000000	0.035874
656.000000	0.035870
655.000000	0.035970
654.000000	0.035951
653.000000	0.035861
652.000000	0.035867
651.000000	0.036010
650.000000	0.035945
649.000000	0.035932
648.000000	0.035954
647.000000	0.036049
646.000000	0.036030
645.000000	0.035974
644.000000	0.036001
643.000000	0.036058
642.000000	0.036062
641.000000	0.036096
640.000000	0.036117
639.000000	0.036138
638.000000	0.036121
637.000000	0.036144
636.000000	0.036166
635.000000	0.036112
634.000000	0.036049
633.000000	0.036109
632.000000	0.036161
631.000000	0.036170
630.000000	0.036215
629.000000	0.036282
628.000000	0.036203
627.000000	0.036237
626.000000	0.036225
625.000000	0.036305
624.000000	0.036256
623.000000	0.036331
622.000000	0.036355
621.000000	0.036344
620.000000	0.036394
619.000000	0.036410
618.000000	0.036555
617.000000	0.036478
616.000000	0.036483
615.000000	0.036537
614.000000	0.036592
613.000000	0.036529
612.000000	0.036677
611.000000	0.036755
610.000000	0.036669
609.000000	0.036716
608.000000	0.036768
607.000000	0.036829
606.000000	0.036881
605.000000	0.036842
604.000000	0.036918
603.000000	0.036982
602.000000	0.036935
601.000000	0.037071
600.000000	0.037102
599.000000	0.037010
598.000000	0.036932
597.000000	0.037047
596.000000	0.037055
595.000000	0.036997
594.000000	0.037024
593.000000	0.037122
592.000000	0.037101
591.000000	0.036966
590.000000	0.037034
589.000000	0.037105
588.000000	0.037123
587.000000	0.037056
586.000000	0.037063
585.000000	0.037109
584.000000	0.037094
583.000000	0.037073
582.000000	0.037177
581.000000	0.037228
580.000000	0.037090
579.000000	0.037154
578.000000	0.037194
577.000000	0.037176
576.000000	0.037145
575.000000	0.037201
574.000000	0.037277
573.000000	0.037160
572.000000	0.037202
571.000000	0.037229
570.000000	0.037254
569.000000	0.037244
568.000000	0.037237
567.000000	0.037264
566.000000	0.037284
565.000000	0.037247
564.000000	0.037373
563.000000	0.037351
562.000000	0.037320
561.000000	0.037259
560.000000	0.037190
559.000000	0.037227
558.000000	0.037264
557.000000	0.037322
556.000000	0.037330
555.000000	0.037277
554.000000	0.037377
553.000000	0.037385
552.000000	0.037300
551.000000	0.037263
550.000000	0.037262
549.000000	0.037305
548.000000	0.037278
547.000000	0.037371
546.000000	0.037387
545.000000	0.037368
544.000000	0.037443
543.000000	0.037437
542.000000	0.037395
541.000000	0.037387
540.000000	0.037444
539.000000	0.037525
538.000000	0.037563
537.000000	0.037610
536.000000	0.037583
535.000000	0.037685
534.000000	0.037667
533.000000	0.037692
532.000000	0.037792
531.000000	0.037816
530.000000	0.037833
529.000000	0.037922
528.000000	0.038001
527.000000	0.038025
526.000000	0.038049
525.000000	0.038075
524.000000	0.038161
523.000000	0.038201
522.000000	0.038269
521.000000	0.038371
520.000000	0.038445
519.000000	0.038443
518.000000	0.038443
517.000000	0.038568
516.000000	0.038605
515.000000	0.038630
514.000000	0.038730
513.000000	0.038808
512.000000	0.038836
511.000000	0.038884
510.000000	0.038997
509.000000	0.039032
508.000000	0.039016
507.000000	0.039114
506.000000	0.039196
505.000000	0.039213
504.000000	0.039205
503.000000	0.039343
502.000000	0.039426
501.000000	0.039322
500.000000	0.039306
499.000000	0.039399
498.000000	0.039367
497.000000	0.039304
496.000000	0.039489
495.000000	0.039554
494.000000	0.039549
493.000000	0.039569
492.000000	0.039601
491.000000	0.039684
490.000000	0.039725
489.000000	0.039758
488.000000	0.039799
487.000000	0.039838
486.000000	0.039832
485.000000	0.039841
484.000000	0.039925
483.000000	0.039929
482.000000	0.039979
481.000000	0.040080
480.000000	0.040145
479.000000	0.040146
478.000000	0.040136
477.000000	0.040165
476.000000	0.040203
475.000000	0.040290
474.000000	0.040428
473.000000	0.040487
472.000000	0.040491
471.000000	0.040503
470.000000	0.040563
469.000000	0.040592
468.000000	0.040664
467.000000	0.040790
466.000000	0.040872
465.000000	0.040841
464.000000	0.040911
463.000000	0.041121
462.000000	0.041204
461.000000	0.041196
460.000000	0.041312
459.000000	0.041421
458.000000	0.041504
457.000000	0.041596
456.000000	0.041739
455.000000	0.041815
454.000000	0.041866
453.000000	0.041951
452.000000	0.042094
451.000000	0.042275
450.000000	0.042305
449.000000	0.042458
448.000000	0.042574
447.000000	0.042593
446.000000	0.042718
445.000000	0.042868
444.000000	0.043056
443.000000	0.043162
442.000000	0.043306
441.000000	0.043477
440.000000	0.043669
439.000000	0.043766
438.000000	0.043918
437.000000	0.044117
436.000000	0.044194
435.000000	0.044266
434.000000	0.044433
433.000000	0.044599
432.000000	0.044778
431.000000	0.044942
430.000000	0.045202
429.000000	0.045334
428.000000	0.045451
427.000000	0.045684
426.000000	0.045809
425.000000	0.045981
424.000000	0.046115
423.000000	0.046323
422.000000	0.046510
421.000000	0.046646
420.000000	0.046865
419.000000	0.046976
418.000000	0.047226
417.000000	0.047303
416.000000	0.047543
415.000000	0.047747
414.000000	0.047978
413.000000	0.048060
412.000000	0.048369
411.000000	0.048451
410.000000	0.048629
409.000000	0.048796
408.000000	0.048936
407.000000	0.049135
406.000000	0.049407
405.000000	0.049465
404.000000	0.049700
403.000000	0.049842
402.000000	0.050044
401.000000	0.050221
400.000000	0.050382
399.000000	0.050460
398.000000	0.050726
397.000000	0.051047
396.000000	0.051218
395.000000	0.051350
394.000000	0.051567
393.000000	0.051679
392.000000	0.051791
391.000000	0.052118
390.000000	0.052485
389.000000	0.052632
388.000000	0.052837
387.000000	0.053057
386.000000	0.053377
385.000000	0.053590
384.000000	0.053760
383.000000	0.054153
382.000000	0.054360
381.000000	0.054470
380.000000	0.054845
379.000000	0.055198
378.000000	0.055265
377.000000	0.055672
376.000000	0.055707
375.000000	0.056189
374.000000	0.056511
373.000000	0.056769
372.000000	0.057108
371.000000	0.057549
370.000000	0.057875
369.000000	0.058153
368.000000	0.058640
367.000000	0.058999
366.000000	0.059328
365.000000	0.059642
364.000000	0.060126
363.000000	0.060475
362.000000	0.060803
361.000000	0.061369
360.000000	0.061675
359.000000	0.062070
358.000000	0.062456
357.000000	0.062894
356.000000	0.063373
355.000000	0.063839
354.000000	0.064384
353.000000	0.064752
352.000000	0.065190
351.000000	0.065749
350.000000	0.066215
349.000000	0.066710
348.000000	0.067129
347.000000	0.067647
346.000000	0.068170
345.000000	0.068756
344.000000	0.069225
343.000000	0.069761
342.000000	0.070260
341.000000	0.070774
340.000000	0.071451
339.000000	0.071954
338.000000	0.072569
337.000000	0.073296
336.000000	0.073766
335.000000	0.074266
334.000000	0.075096
333.000000	0.075638
332.000000	0.076391
331.000000	0.077077
330.000000	0.077818
329.000000	0.078412
328.000000	0.079125
327.000000	0.079918
326.000000	0.080638
325.000000	0.081417
324.000000	0.082223
323.000000	0.082950
322.000000	0.083832
321.000000	0.084703
320.000000	0.085503
319.000000	0.086348
318.000000	0.086245
317.000000	0.084934
316.000000	0.085810
315.000000	0.086787
314.000000	0.087831
313.000000	0.088851
312.000000	0.089751
311.000000	0.090808
310.000000	0.091909
309.000000	0.093028
308.000000	0.094117
307.000000	0.095200
306.000000	0.096366
305.000000	0.097652
304.000000	0.098872
303.000000	0.100182
302.000000	0.101511
301.000000	0.102864
300.000000	0.104247
299.000000	0.105688
298.000000	0.107126
297.000000	0.108673
296.000000	0.110257
295.000000	0.111863
294.000000	0.113589
293.000000	0.115275
292.000000	0.117054
291.000000	0.118862
290.000000	0.120756
289.000000	0.122669
288.000000	0.124522
287.000000	0.126417
286.000000	0.128355
285.000000	0.130276
284.000000	0.132185
283.000000	0.134110
282.000000	0.136014
281.000000	0.137843
280.000000	0.139736
279.000000	0.141765
278.000000	0.143707
277.000000	0.145585
276.000000	0.147510
275.000000	0.149284
274.000000	0.151155
273.000000	0.153070
272.000000	0.154951
271.000000	0.156814
270.000000	0.158615
269.000000	0.160337
268.000000	0.162058
267.000000	0.163891
266.000000	0.165681
265.000000	0.167483
264.000000	0.169116
263.000000	0.170744
262.000000	0.172429
261.000000	0.174102
260.000000	0.175708
259.000000	0.177271
258.000000	0.178894
257.000000	0.180437
256.000000	0.181988
255.000000	0.183521
254.000000	0.185076
253.000000	0.186688
252.000000	0.188409
251.000000	0.190077
250.000000	0.191900
249.000000	0.193791
248.000000	0.195741
247.000000	0.197782
246.000000	0.199964
245.000000	0.202167
244.000000	0.204589
243.000000	0.207142
242.000000	0.209871
241.000000	0.212652
240.000000	0.215596
239.000000	0.218770
238.000000	0.222118
237.000000	0.225566
236.000000	0.229229
235.000000	0.233019
234.000000	0.236962
233.000000	0.241062
232.000000	0.245370
231.000000	0.249715
230.000000	0.254267
229.000000	0.259003
228.000000	0.263874
227.000000	0.268959
226.000000	0.274384
225.000000	0.280372
224.000000	0.286789
223.000000	0.293967
222.000000	0.301893
221.000000	0.310904
220.000000	0.321620
219.000000	0.333938
218.000000	0.348472
217.000000	0.365792
216.000000	0.386870
215.000000	0.411654
214.000000	0.442234
213.000000	0.479540
212.000000	0.524061
211.000000	0.577432
210.000000	0.640697
209.000000	0.714618
208.000000	0.802148
207.000000	0.905904
206.000000	1.028536
205.000000	1.174781
204.000000	1.350865
203.000000	1.567869
202.000000	1.838572
201.000000	2.182291
200.000000	2.627589
