PE UV       SUBTECH     SPECTRUM    ASCII       PEDS        4.00        
   -1
TV6-04B.Sample.Raw.asc
11/10/14
13:11:39.00
11/10/14
13:11:39.00
Hermanni Kaartokallio

200.000000
1
Lambda 650
650N8121101
PerkinElmer UV WinLab 6.0.2.0723 / 1.61.00 Lambda 650

0
0
2
0
0
UV/VIS
1
1
1
uv/vis/nir detector
0
0
0
0
Fix
 
0
0.24
0
0
0
 
 
 
0
 
0
319.2
0
Front
100
 
 
 
0
0
0
 
0
 
 
 
0
 
 
0
0
0
0
0
 
 
 
 
0
0
#HDR
-1
-1
#GR
nm
A
1.0
0.0
800.000000
-1.000000
601
8
3.200343
0.035206
#DATA
800.000000	0.042983
799.000000	0.043041
798.000000	0.043206
797.000000	0.043181
796.000000	0.043269
795.000000	0.043334
794.000000	0.043468
793.000000	0.043408
792.000000	0.043450
791.000000	0.043507
790.000000	0.043551
789.000000	0.043780
788.000000	0.043944
787.000000	0.043815
786.000000	0.043834
785.000000	0.043983
784.000000	0.044117
783.000000	0.044164
782.000000	0.044129
781.000000	0.044303
780.000000	0.044288
779.000000	0.044356
778.000000	0.044410
777.000000	0.044454
776.000000	0.044430
775.000000	0.044452
774.000000	0.044453
773.000000	0.044437
772.000000	0.044606
771.000000	0.044714
770.000000	0.044606
769.000000	0.044682
768.000000	0.044700
767.000000	0.044740
766.000000	0.044739
765.000000	0.044807
764.000000	0.044878
763.000000	0.044832
762.000000	0.044848
761.000000	0.044898
760.000000	0.045012
759.000000	0.044970
758.000000	0.045107
757.000000	0.045136
756.000000	0.045127
755.000000	0.045088
754.000000	0.045218
753.000000	0.045218
752.000000	0.045283
751.000000	0.045252
750.000000	0.045226
749.000000	0.045265
748.000000	0.045242
747.000000	0.045202
746.000000	0.045224
745.000000	0.045163
744.000000	0.045183
743.000000	0.045205
742.000000	0.045243
741.000000	0.045240
740.000000	0.045088
739.000000	0.044937
738.000000	0.044754
737.000000	0.044589
736.000000	0.044354
735.000000	0.043982
734.000000	0.043567
733.000000	0.043184
732.000000	0.042727
731.000000	0.042229
730.000000	0.041737
729.000000	0.041289
728.000000	0.040897
727.000000	0.040477
726.000000	0.040045
725.000000	0.039780
724.000000	0.039622
723.000000	0.039355
722.000000	0.039122
721.000000	0.038896
720.000000	0.038751
719.000000	0.038506
718.000000	0.038280
717.000000	0.038181
716.000000	0.037937
715.000000	0.037667
714.000000	0.037522
713.000000	0.037396
712.000000	0.037203
711.000000	0.036987
710.000000	0.036866
709.000000	0.036711
708.000000	0.036516
707.000000	0.036464
706.000000	0.036426
705.000000	0.036307
704.000000	0.036228
703.000000	0.036082
702.000000	0.035951
701.000000	0.035911
700.000000	0.035876
699.000000	0.035862
698.000000	0.035809
697.000000	0.035682
696.000000	0.035626
695.000000	0.035629
694.000000	0.035581
693.000000	0.035546
692.000000	0.035586
691.000000	0.035499
690.000000	0.035349
689.000000	0.035405
688.000000	0.035432
687.000000	0.035333
686.000000	0.035294
685.000000	0.035356
684.000000	0.035380
683.000000	0.035330
682.000000	0.035287
681.000000	0.035309
680.000000	0.035306
679.000000	0.035311
678.000000	0.035350
677.000000	0.035304
676.000000	0.035241
675.000000	0.035206
674.000000	0.035239
673.000000	0.035234
672.000000	0.035255
671.000000	0.035292
670.000000	0.035403
669.000000	0.035338
668.000000	0.035346
667.000000	0.035446
666.000000	0.035421
665.000000	0.035330
664.000000	0.035390
663.000000	0.035393
662.000000	0.035396
661.000000	0.035426
660.000000	0.035458
659.000000	0.035418
658.000000	0.035284
657.000000	0.035291
656.000000	0.035339
655.000000	0.035356
654.000000	0.035337
653.000000	0.035316
652.000000	0.035347
651.000000	0.035333
650.000000	0.035307
649.000000	0.035388
648.000000	0.035409
647.000000	0.035404
646.000000	0.035404
645.000000	0.035386
644.000000	0.035400
643.000000	0.035451
642.000000	0.035509
641.000000	0.035483
640.000000	0.035436
639.000000	0.035458
638.000000	0.035502
637.000000	0.035546
636.000000	0.035511
635.000000	0.035497
634.000000	0.035488
633.000000	0.035488
632.000000	0.035551
631.000000	0.035557
630.000000	0.035619
629.000000	0.035600
628.000000	0.035558
627.000000	0.035654
626.000000	0.035585
625.000000	0.035590
624.000000	0.035660
623.000000	0.035705
622.000000	0.035646
621.000000	0.035720
620.000000	0.035748
619.000000	0.035811
618.000000	0.035873
617.000000	0.035853
616.000000	0.035856
615.000000	0.035836
614.000000	0.035893
613.000000	0.035842
612.000000	0.036035
611.000000	0.036064
610.000000	0.035925
609.000000	0.035995
608.000000	0.036127
607.000000	0.036090
606.000000	0.036186
605.000000	0.036242
604.000000	0.036253
603.000000	0.036208
602.000000	0.036301
601.000000	0.036375
600.000000	0.036361
599.000000	0.036308
598.000000	0.036274
597.000000	0.036373
596.000000	0.036260
595.000000	0.036275
594.000000	0.036346
593.000000	0.036324
592.000000	0.036267
591.000000	0.036323
590.000000	0.036370
589.000000	0.036346
588.000000	0.036369
587.000000	0.036370
586.000000	0.036394
585.000000	0.036278
584.000000	0.036318
583.000000	0.036442
582.000000	0.036351
581.000000	0.036332
580.000000	0.036285
579.000000	0.036424
578.000000	0.036378
577.000000	0.036397
576.000000	0.036452
575.000000	0.036475
574.000000	0.036397
573.000000	0.036401
572.000000	0.036440
571.000000	0.036375
570.000000	0.036387
569.000000	0.036502
568.000000	0.036455
567.000000	0.036391
566.000000	0.036396
565.000000	0.036431
564.000000	0.036539
563.000000	0.036485
562.000000	0.036543
561.000000	0.036436
560.000000	0.036347
559.000000	0.036490
558.000000	0.036584
557.000000	0.036532
556.000000	0.036562
555.000000	0.036526
554.000000	0.036554
553.000000	0.036532
552.000000	0.036471
551.000000	0.036564
550.000000	0.036560
549.000000	0.036513
548.000000	0.036475
547.000000	0.036596
546.000000	0.036560
545.000000	0.036548
544.000000	0.036657
543.000000	0.036663
542.000000	0.036568
541.000000	0.036603
540.000000	0.036711
539.000000	0.036675
538.000000	0.036665
537.000000	0.036780
536.000000	0.036781
535.000000	0.036811
534.000000	0.036797
533.000000	0.036954
532.000000	0.037002
531.000000	0.036971
530.000000	0.037040
529.000000	0.037141
528.000000	0.037146
527.000000	0.037113
526.000000	0.037204
525.000000	0.037253
524.000000	0.037230
523.000000	0.037235
522.000000	0.037359
521.000000	0.037427
520.000000	0.037422
519.000000	0.037470
518.000000	0.037566
517.000000	0.037584
516.000000	0.037556
515.000000	0.037678
514.000000	0.037796
513.000000	0.037745
512.000000	0.037758
511.000000	0.037859
510.000000	0.037914
509.000000	0.037865
508.000000	0.037928
507.000000	0.038003
506.000000	0.037996
505.000000	0.038033
504.000000	0.038116
503.000000	0.038119
502.000000	0.038045
501.000000	0.038065
500.000000	0.038126
499.000000	0.038163
498.000000	0.038089
497.000000	0.038125
496.000000	0.038299
495.000000	0.038340
494.000000	0.038380
493.000000	0.038410
492.000000	0.038383
491.000000	0.038387
490.000000	0.038451
489.000000	0.038515
488.000000	0.038469
487.000000	0.038480
486.000000	0.038536
485.000000	0.038555
484.000000	0.038581
483.000000	0.038571
482.000000	0.038649
481.000000	0.038663
480.000000	0.038650
479.000000	0.038716
478.000000	0.038733
477.000000	0.038686
476.000000	0.038722
475.000000	0.038869
474.000000	0.038915
473.000000	0.038921
472.000000	0.038990
471.000000	0.039069
470.000000	0.039021
469.000000	0.039015
468.000000	0.039135
467.000000	0.039187
466.000000	0.039150
465.000000	0.039150
464.000000	0.039288
463.000000	0.039394
462.000000	0.039385
461.000000	0.039457
460.000000	0.039614
459.000000	0.039659
458.000000	0.039686
457.000000	0.039797
456.000000	0.039913
455.000000	0.039934
454.000000	0.039996
453.000000	0.040089
452.000000	0.040145
451.000000	0.040198
450.000000	0.040312
449.000000	0.040472
448.000000	0.040471
447.000000	0.040492
446.000000	0.040684
445.000000	0.040848
444.000000	0.040829
443.000000	0.040900
442.000000	0.041162
441.000000	0.041253
440.000000	0.041258
439.000000	0.041411
438.000000	0.041621
437.000000	0.041719
436.000000	0.041754
435.000000	0.041883
434.000000	0.042030
433.000000	0.042086
432.000000	0.042217
431.000000	0.042375
430.000000	0.042501
429.000000	0.042574
428.000000	0.042712
427.000000	0.042927
426.000000	0.042966
425.000000	0.043027
424.000000	0.043261
423.000000	0.043321
422.000000	0.043375
421.000000	0.043560
420.000000	0.043769
419.000000	0.043822
418.000000	0.043936
417.000000	0.044063
416.000000	0.044203
415.000000	0.044346
414.000000	0.044478
413.000000	0.044616
412.000000	0.044796
411.000000	0.044763
410.000000	0.044917
409.000000	0.045168
408.000000	0.045140
407.000000	0.045274
406.000000	0.045477
405.000000	0.045560
404.000000	0.045515
403.000000	0.045700
402.000000	0.045958
401.000000	0.045927
400.000000	0.045991
399.000000	0.046149
398.000000	0.046414
397.000000	0.046485
396.000000	0.046558
395.000000	0.046769
394.000000	0.046875
393.000000	0.046900
392.000000	0.046851
391.000000	0.047250
390.000000	0.047418
389.000000	0.047448
388.000000	0.047583
387.000000	0.047857
386.000000	0.047921
385.000000	0.048019
384.000000	0.048259
383.000000	0.048442
382.000000	0.048444
381.000000	0.048527
380.000000	0.048868
379.000000	0.049154
378.000000	0.048911
377.000000	0.048997
376.000000	0.049254
375.000000	0.049414
374.000000	0.049762
373.000000	0.050000
372.000000	0.050108
371.000000	0.050264
370.000000	0.050731
369.000000	0.050944
368.000000	0.051128
367.000000	0.051390
366.000000	0.051741
365.000000	0.051845
364.000000	0.052025
363.000000	0.052355
362.000000	0.052622
361.000000	0.052869
360.000000	0.053124
359.000000	0.053366
358.000000	0.053749
357.000000	0.053932
356.000000	0.054213
355.000000	0.054681
354.000000	0.054989
353.000000	0.055148
352.000000	0.055494
351.000000	0.056021
350.000000	0.056140
349.000000	0.056500
348.000000	0.056864
347.000000	0.057136
346.000000	0.057403
345.000000	0.057747
344.000000	0.058226
343.000000	0.058567
342.000000	0.058787
341.000000	0.059216
340.000000	0.059701
339.000000	0.060000
338.000000	0.060428
337.000000	0.060915
336.000000	0.061321
335.000000	0.061613
334.000000	0.062200
333.000000	0.062656
332.000000	0.063038
331.000000	0.063474
330.000000	0.064084
329.000000	0.064465
328.000000	0.064823
327.000000	0.065426
326.000000	0.066031
325.000000	0.066475
324.000000	0.066963
323.000000	0.067552
322.000000	0.068153
321.000000	0.068746
320.000000	0.069232
319.000000	0.069996
318.000000	0.069583
317.000000	0.067801
316.000000	0.068500
315.000000	0.069175
314.000000	0.069874
313.000000	0.070701
312.000000	0.071353
311.000000	0.072009
310.000000	0.072775
309.000000	0.073655
308.000000	0.074478
307.000000	0.075305
306.000000	0.076225
305.000000	0.077076
304.000000	0.077877
303.000000	0.078958
302.000000	0.080077
301.000000	0.080935
300.000000	0.081895
299.000000	0.083074
298.000000	0.084277
297.000000	0.085347
296.000000	0.086389
295.000000	0.087678
294.000000	0.089003
293.000000	0.090245
292.000000	0.091619
291.000000	0.093074
290.000000	0.094456
289.000000	0.095765
288.000000	0.097222
287.000000	0.098790
286.000000	0.100283
285.000000	0.101712
284.000000	0.103295
283.000000	0.104779
282.000000	0.106097
281.000000	0.107581
280.000000	0.109141
279.000000	0.110634
278.000000	0.112140
277.000000	0.113668
276.000000	0.115248
275.000000	0.116704
274.000000	0.118217
273.000000	0.119834
272.000000	0.121278
271.000000	0.122716
270.000000	0.124243
269.000000	0.125758
268.000000	0.127138
267.000000	0.128536
266.000000	0.130069
265.000000	0.131572
264.000000	0.132852
263.000000	0.134157
262.000000	0.135578
261.000000	0.137007
260.000000	0.138272
259.000000	0.139548
258.000000	0.140928
257.000000	0.142183
256.000000	0.143346
255.000000	0.144720
254.000000	0.146064
253.000000	0.147275
252.000000	0.148610
251.000000	0.150099
250.000000	0.151564
249.000000	0.153043
248.000000	0.154693
247.000000	0.156437
246.000000	0.158148
245.000000	0.159956
244.000000	0.162049
243.000000	0.164142
242.000000	0.166303
241.000000	0.168771
240.000000	0.171317
239.000000	0.173986
238.000000	0.176684
237.000000	0.179764
236.000000	0.182935
235.000000	0.186132
234.000000	0.189661
233.000000	0.193486
232.000000	0.197316
231.000000	0.201185
230.000000	0.205467
229.000000	0.209939
228.000000	0.214469
227.000000	0.219265
226.000000	0.224690
225.000000	0.230600
224.000000	0.236976
223.000000	0.244275
222.000000	0.252834
221.000000	0.262545
220.000000	0.274040
219.000000	0.288093
218.000000	0.304762
217.000000	0.325104
216.000000	0.350132
215.000000	0.380562
214.000000	0.417602
213.000000	0.463311
212.000000	0.518461
211.000000	0.584940
210.000000	0.663958
209.000000	0.757326
208.000000	0.867983
207.000000	0.998761
206.000000	1.154575
205.000000	1.340260
204.000000	1.563972
203.000000	1.839585
202.000000	2.181435
201.000000	2.617586
200.000000	3.200343
