PE UV       SUBTECH     SPECTRUM    ASCII       PEDS        4.00        
   -1
TV6-01B.Sample.Raw.asc
11/10/14
12:21:20.00
11/10/14
12:21:20.00
Hermanni Kaartokallio

200.000000
1
Lambda 650
650N8121101
PerkinElmer UV WinLab 6.0.2.0723 / 1.61.00 Lambda 650

0
0
2
0
0
UV/VIS
1
1
1
uv/vis/nir detector
0
0
0
0
Fix
 
0
0.24
0
0
0
 
 
 
0
 
0
319.2
0
Front
100
 
 
 
0
0
0
 
0
 
 
 
0
 
 
0
0
0
0
0
 
 
 
 
0
0
#HDR
-1
-1
#GR
nm
A
1.0
0.0
800.000000
-1.000000
601
8
2.890200
0.035282
#DATA
800.000000	0.043128
799.000000	0.043166
798.000000	0.043393
797.000000	0.043395
796.000000	0.043486
795.000000	0.043493
794.000000	0.043554
793.000000	0.043587
792.000000	0.043597
791.000000	0.043731
790.000000	0.043751
789.000000	0.043962
788.000000	0.044062
787.000000	0.044084
786.000000	0.044056
785.000000	0.044151
784.000000	0.044298
783.000000	0.044295
782.000000	0.044333
781.000000	0.044441
780.000000	0.044460
779.000000	0.044463
778.000000	0.044615
777.000000	0.044671
776.000000	0.044670
775.000000	0.044565
774.000000	0.044618
773.000000	0.044610
772.000000	0.044638
771.000000	0.044618
770.000000	0.044734
769.000000	0.044808
768.000000	0.044811
767.000000	0.044846
766.000000	0.044903
765.000000	0.044908
764.000000	0.044870
763.000000	0.044940
762.000000	0.044906
761.000000	0.045035
760.000000	0.045053
759.000000	0.045068
758.000000	0.045129
757.000000	0.045129
756.000000	0.045174
755.000000	0.045119
754.000000	0.045229
753.000000	0.045252
752.000000	0.045310
751.000000	0.045315
750.000000	0.045231
749.000000	0.045230
748.000000	0.045255
747.000000	0.045278
746.000000	0.045262
745.000000	0.045244
744.000000	0.045261
743.000000	0.045305
742.000000	0.045333
741.000000	0.045287
740.000000	0.045122
739.000000	0.045007
738.000000	0.044823
737.000000	0.044648
736.000000	0.044487
735.000000	0.044130
734.000000	0.043776
733.000000	0.043400
732.000000	0.042840
731.000000	0.042405
730.000000	0.041906
729.000000	0.041441
728.000000	0.041065
727.000000	0.040616
726.000000	0.040205
725.000000	0.039950
724.000000	0.039754
723.000000	0.039594
722.000000	0.039373
721.000000	0.039090
720.000000	0.038884
719.000000	0.038700
718.000000	0.038501
717.000000	0.038305
716.000000	0.038085
715.000000	0.037906
714.000000	0.037723
713.000000	0.037540
712.000000	0.037432
711.000000	0.037241
710.000000	0.037088
709.000000	0.036890
708.000000	0.036698
707.000000	0.036677
706.000000	0.036587
705.000000	0.036470
704.000000	0.036429
703.000000	0.036234
702.000000	0.036083
701.000000	0.036099
700.000000	0.036075
699.000000	0.035988
698.000000	0.035896
697.000000	0.035807
696.000000	0.035736
695.000000	0.035735
694.000000	0.035692
693.000000	0.035631
692.000000	0.035585
691.000000	0.035491
690.000000	0.035447
689.000000	0.035453
688.000000	0.035448
687.000000	0.035424
686.000000	0.035389
685.000000	0.035339
684.000000	0.035369
683.000000	0.035416
682.000000	0.035340
681.000000	0.035342
680.000000	0.035322
679.000000	0.035319
678.000000	0.035358
677.000000	0.035312
676.000000	0.035300
675.000000	0.035313
674.000000	0.035282
673.000000	0.035356
672.000000	0.035395
671.000000	0.035389
670.000000	0.035472
669.000000	0.035433
668.000000	0.035432
667.000000	0.035468
666.000000	0.035519
665.000000	0.035525
664.000000	0.035519
663.000000	0.035502
662.000000	0.035553
661.000000	0.035552
660.000000	0.035486
659.000000	0.035528
658.000000	0.035418
657.000000	0.035461
656.000000	0.035406
655.000000	0.035431
654.000000	0.035499
653.000000	0.035463
652.000000	0.035439
651.000000	0.035512
650.000000	0.035482
649.000000	0.035504
648.000000	0.035555
647.000000	0.035561
646.000000	0.035544
645.000000	0.035525
644.000000	0.035528
643.000000	0.035612
642.000000	0.035668
641.000000	0.035657
640.000000	0.035539
639.000000	0.035584
638.000000	0.035632
637.000000	0.035670
636.000000	0.035675
635.000000	0.035649
634.000000	0.035563
633.000000	0.035604
632.000000	0.035694
631.000000	0.035712
630.000000	0.035714
629.000000	0.035716
628.000000	0.035671
627.000000	0.035739
626.000000	0.035723
625.000000	0.035747
624.000000	0.035788
623.000000	0.035798
622.000000	0.035764
621.000000	0.035808
620.000000	0.035902
619.000000	0.035920
618.000000	0.035950
617.000000	0.035978
616.000000	0.035976
615.000000	0.035936
614.000000	0.036074
613.000000	0.036089
612.000000	0.036148
611.000000	0.036148
610.000000	0.036117
609.000000	0.036157
608.000000	0.036250
607.000000	0.036297
606.000000	0.036387
605.000000	0.036355
604.000000	0.036325
603.000000	0.036427
602.000000	0.036419
601.000000	0.036464
600.000000	0.036460
599.000000	0.036441
598.000000	0.036324
597.000000	0.036477
596.000000	0.036433
595.000000	0.036503
594.000000	0.036465
593.000000	0.036520
592.000000	0.036530
591.000000	0.036454
590.000000	0.036471
589.000000	0.036537
588.000000	0.036598
587.000000	0.036571
586.000000	0.036532
585.000000	0.036567
584.000000	0.036583
583.000000	0.036606
582.000000	0.036575
581.000000	0.036571
580.000000	0.036602
579.000000	0.036548
578.000000	0.036533
577.000000	0.036636
576.000000	0.036582
575.000000	0.036661
574.000000	0.036603
573.000000	0.036653
572.000000	0.036667
571.000000	0.036597
570.000000	0.036686
569.000000	0.036736
568.000000	0.036700
567.000000	0.036668
566.000000	0.036698
565.000000	0.036719
564.000000	0.036774
563.000000	0.036769
562.000000	0.036765
561.000000	0.036662
560.000000	0.036584
559.000000	0.036703
558.000000	0.036725
557.000000	0.036727
556.000000	0.036799
555.000000	0.036765
554.000000	0.036793
553.000000	0.036803
552.000000	0.036776
551.000000	0.036786
550.000000	0.036821
549.000000	0.036735
548.000000	0.036729
547.000000	0.036750
546.000000	0.036786
545.000000	0.036797
544.000000	0.036834
543.000000	0.036807
542.000000	0.036767
541.000000	0.036819
540.000000	0.036883
539.000000	0.036870
538.000000	0.036912
537.000000	0.037014
536.000000	0.036984
535.000000	0.037019
534.000000	0.037079
533.000000	0.037201
532.000000	0.037119
531.000000	0.037104
530.000000	0.037149
529.000000	0.037252
528.000000	0.037301
527.000000	0.037337
526.000000	0.037362
525.000000	0.037371
524.000000	0.037367
523.000000	0.037501
522.000000	0.037580
521.000000	0.037607
520.000000	0.037655
519.000000	0.037655
518.000000	0.037682
517.000000	0.037828
516.000000	0.037907
515.000000	0.037959
514.000000	0.038006
513.000000	0.038092
512.000000	0.038115
511.000000	0.038177
510.000000	0.038284
509.000000	0.038367
508.000000	0.038384
507.000000	0.038413
506.000000	0.038444
505.000000	0.038490
504.000000	0.038526
503.000000	0.038521
502.000000	0.038560
501.000000	0.038600
500.000000	0.038611
499.000000	0.038677
498.000000	0.038620
497.000000	0.038593
496.000000	0.038712
495.000000	0.038723
494.000000	0.038784
493.000000	0.038865
492.000000	0.038872
491.000000	0.038903
490.000000	0.038984
489.000000	0.039030
488.000000	0.039017
487.000000	0.039093
486.000000	0.039121
485.000000	0.039156
484.000000	0.039253
483.000000	0.039270
482.000000	0.039280
481.000000	0.039274
480.000000	0.039352
479.000000	0.039451
478.000000	0.039442
477.000000	0.039428
476.000000	0.039496
475.000000	0.039614
474.000000	0.039655
473.000000	0.039674
472.000000	0.039744
471.000000	0.039781
470.000000	0.039770
469.000000	0.039885
468.000000	0.040037
467.000000	0.040082
466.000000	0.040116
465.000000	0.040137
464.000000	0.040211
463.000000	0.040312
462.000000	0.040399
461.000000	0.040522
460.000000	0.040628
459.000000	0.040695
458.000000	0.040750
457.000000	0.040835
456.000000	0.040894
455.000000	0.040992
454.000000	0.041101
453.000000	0.041139
452.000000	0.041267
451.000000	0.041438
450.000000	0.041526
449.000000	0.041654
448.000000	0.041685
447.000000	0.041694
446.000000	0.041873
445.000000	0.041984
444.000000	0.042118
443.000000	0.042277
442.000000	0.042437
441.000000	0.042494
440.000000	0.042677
439.000000	0.042852
438.000000	0.042958
437.000000	0.043122
436.000000	0.043219
435.000000	0.043344
434.000000	0.043497
433.000000	0.043638
432.000000	0.043845
431.000000	0.043941
430.000000	0.044103
429.000000	0.044257
428.000000	0.044439
427.000000	0.044593
426.000000	0.044702
425.000000	0.044895
424.000000	0.045089
423.000000	0.045256
422.000000	0.045416
421.000000	0.045579
420.000000	0.045706
419.000000	0.045827
418.000000	0.046066
417.000000	0.046212
416.000000	0.046419
415.000000	0.046590
414.000000	0.046813
413.000000	0.046969
412.000000	0.047136
411.000000	0.047222
410.000000	0.047496
409.000000	0.047634
408.000000	0.047774
407.000000	0.047961
406.000000	0.048163
405.000000	0.048204
404.000000	0.048363
403.000000	0.048663
402.000000	0.048931
401.000000	0.049024
400.000000	0.049160
399.000000	0.049421
398.000000	0.049592
397.000000	0.049799
396.000000	0.049915
395.000000	0.050186
394.000000	0.050359
393.000000	0.050522
392.000000	0.050733
391.000000	0.051147
390.000000	0.051279
389.000000	0.051517
388.000000	0.051676
387.000000	0.051911
386.000000	0.052249
385.000000	0.052442
384.000000	0.052669
383.000000	0.052961
382.000000	0.053060
381.000000	0.053334
380.000000	0.053746
379.000000	0.054038
378.000000	0.054020
377.000000	0.054302
376.000000	0.054687
375.000000	0.055021
374.000000	0.055278
373.000000	0.055609
372.000000	0.055856
371.000000	0.056252
370.000000	0.056710
369.000000	0.057027
368.000000	0.057389
367.000000	0.057776
366.000000	0.058255
365.000000	0.058509
364.000000	0.058922
363.000000	0.059332
362.000000	0.059678
361.000000	0.060127
360.000000	0.060549
359.000000	0.060904
358.000000	0.061384
357.000000	0.061750
356.000000	0.062216
355.000000	0.062743
354.000000	0.063089
353.000000	0.063636
352.000000	0.064108
351.000000	0.064580
350.000000	0.064965
349.000000	0.065592
348.000000	0.066102
347.000000	0.066388
346.000000	0.066867
345.000000	0.067512
344.000000	0.068074
343.000000	0.068549
342.000000	0.069121
341.000000	0.069629
340.000000	0.070235
339.000000	0.070726
338.000000	0.071375
337.000000	0.072003
336.000000	0.072509
335.000000	0.072994
334.000000	0.073770
333.000000	0.074337
332.000000	0.074936
331.000000	0.075710
330.000000	0.076427
329.000000	0.076976
328.000000	0.077745
327.000000	0.078558
326.000000	0.079256
325.000000	0.079993
324.000000	0.080732
323.000000	0.081451
322.000000	0.082187
321.000000	0.083025
320.000000	0.083852
319.000000	0.084844
318.000000	0.084912
317.000000	0.083955
316.000000	0.084842
315.000000	0.085845
314.000000	0.086879
313.000000	0.087934
312.000000	0.088763
311.000000	0.089768
310.000000	0.090901
309.000000	0.091892
308.000000	0.092807
307.000000	0.093907
306.000000	0.095047
305.000000	0.096139
304.000000	0.097278
303.000000	0.098662
302.000000	0.100083
301.000000	0.101272
300.000000	0.102553
299.000000	0.103935
298.000000	0.105326
297.000000	0.106855
296.000000	0.108325
295.000000	0.109833
294.000000	0.111392
293.000000	0.113050
292.000000	0.114797
291.000000	0.116528
290.000000	0.118259
289.000000	0.120028
288.000000	0.121813
287.000000	0.123621
286.000000	0.125490
285.000000	0.127304
284.000000	0.129126
283.000000	0.130842
282.000000	0.132584
281.000000	0.134472
280.000000	0.136316
279.000000	0.138151
278.000000	0.140084
277.000000	0.141923
276.000000	0.143759
275.000000	0.145529
274.000000	0.147332
273.000000	0.149267
272.000000	0.151125
271.000000	0.153026
270.000000	0.154691
269.000000	0.156226
268.000000	0.157921
267.000000	0.159762
266.000000	0.161535
265.000000	0.163275
264.000000	0.164969
263.000000	0.166645
262.000000	0.168357
261.000000	0.169983
260.000000	0.171606
259.000000	0.173217
258.000000	0.174769
257.000000	0.176220
256.000000	0.177801
255.000000	0.179405
254.000000	0.180944
253.000000	0.182596
252.000000	0.184375
251.000000	0.186048
250.000000	0.187755
249.000000	0.189574
248.000000	0.191549
247.000000	0.193653
246.000000	0.195836
245.000000	0.198161
244.000000	0.200752
243.000000	0.203374
242.000000	0.206249
241.000000	0.209460
240.000000	0.212625
239.000000	0.216139
238.000000	0.219957
237.000000	0.224122
236.000000	0.228575
235.000000	0.233341
234.000000	0.238537
233.000000	0.244222
232.000000	0.250261
231.000000	0.256831
230.000000	0.264140
229.000000	0.271861
228.000000	0.280358
227.000000	0.289553
226.000000	0.299814
225.000000	0.311078
224.000000	0.323455
223.000000	0.337341
222.000000	0.352759
221.000000	0.369533
220.000000	0.388631
219.000000	0.409506
218.000000	0.433065
217.000000	0.459863
216.000000	0.490915
215.000000	0.526284
214.000000	0.566950
213.000000	0.614376
212.000000	0.668525
211.000000	0.731362
210.000000	0.804111
209.000000	0.887640
208.000000	0.984083
207.000000	1.096062
206.000000	1.227409
205.000000	1.382188
204.000000	1.567093
203.000000	1.793660
202.000000	2.074434
201.000000	2.430370
200.000000	2.890200
