PE UV       SUBTECH     SPECTRUM    ASCII       PEDS        4.00        	
-1	
KI300061010_1CM_CELL.Sample.Raw.asc	
10.10.2008	
10:22:16.00	
10.10.2008	
10:22:16.00	
Hermanni Kaartokallio	
	
200.000000	
1	
Lambda 650	
650N8121101	
PerkinElmer UV WinLab 6.0.2.0723 / 1.61.00 Lambda 650	
	
0	
0	
2	
0	
0	
UV/VIS	
1	
1	
1	
uv/vis/nir detector	
0	
0	
0	
0	
Fix	
 	
0	
0.24	
0	
0	
0	
 	
 	
 	
0	
 	
0	
319.2	
0	
Front	
100	
 	
 	
 	
0	
0	
0	
 	
0	
 	
 	
 	
0	
 	
 	
0	
0	
0	
0	
0	
 	
 	
 	
 	
0	
0	
#HDR	
-1	
-1	
#GR	
nm	
A	
1.0	
0.0	
800.000000	
-1.000000	
601	
8	
10.000000	
0.036321	
#DATA	
800.000000	10.000000
799.000000	0.043187
798.000000	0.043189
797.000000	0.043167
796.000000	0.043635
795.000000	0.043687
794.000000	0.043649
793.000000	0.043736
792.000000	0.043862
791.000000	0.043890
790.000000	0.044069
789.000000	0.044058
788.000000	0.044237
787.000000	0.044315
786.000000	0.044203
785.000000	0.044406
784.000000	0.044748
783.000000	0.044679
782.000000	0.044699
781.000000	0.044824
780.000000	0.044790
779.000000	0.044841
778.000000	0.045147
777.000000	0.045001
776.000000	0.044868
775.000000	0.044857
774.000000	0.044958
773.000000	0.045066
772.000000	0.045121
771.000000	0.045090
770.000000	0.045269
769.000000	0.045157
768.000000	0.045082
767.000000	0.045227
766.000000	0.045389
765.000000	0.045218
764.000000	0.045247
763.000000	0.045346
762.000000	0.045251
761.000000	0.045264
760.000000	0.045367
759.000000	0.045321
758.000000	0.045254
757.000000	0.045235
756.000000	0.045343
755.000000	0.045420
754.000000	0.045506
753.000000	0.045530
752.000000	0.045681
751.000000	0.045713
750.000000	0.045578
749.000000	0.045751
748.000000	0.045913
747.000000	0.045787
746.000000	0.045954
745.000000	0.046053
744.000000	0.045968
743.000000	0.045915
742.000000	0.046010
741.000000	0.045987
740.000000	0.045925
739.000000	0.045752
738.000000	0.045569
737.000000	0.045459
736.000000	0.045385
735.000000	0.045072
734.000000	0.044810
733.000000	0.044271
732.000000	0.043664
731.000000	0.043325
730.000000	0.042976
729.000000	0.042415
728.000000	0.041934
727.000000	0.041490
726.000000	0.041064
725.000000	0.040801
724.000000	0.040683
723.000000	0.040482
722.000000	0.040145
721.000000	0.039819
720.000000	0.039560
719.000000	0.039505
718.000000	0.039400
717.000000	0.039067
716.000000	0.038845
715.000000	0.038530
714.000000	0.038256
713.000000	0.038170
712.000000	0.038019
711.000000	0.037711
710.000000	0.037513
709.000000	0.037386
708.000000	0.037232
707.000000	0.037142
706.000000	0.037055
705.000000	0.036955
704.000000	0.036880
703.000000	0.036751
702.000000	0.036629
701.000000	0.036688
700.000000	0.036685
699.000000	0.036570
698.000000	0.036548
697.000000	0.036408
696.000000	0.036321
695.000000	0.036507
694.000000	0.036594
693.000000	0.036595
692.000000	0.036672
691.000000	0.036757
690.000000	0.036843
689.000000	0.036631
688.000000	0.037035
687.000000	0.037315
686.000000	0.037288
685.000000	0.037472
684.000000	0.037592
683.000000	0.037603
682.000000	0.037621
681.000000	0.037798
680.000000	0.038088
679.000000	0.038152
678.000000	0.038151
677.000000	0.038290
676.000000	0.038331
675.000000	0.038391
674.000000	0.038572
673.000000	0.038651
672.000000	0.038661
671.000000	0.038718
670.000000	0.038747
669.000000	0.038762
668.000000	0.038899
667.000000	0.038934
666.000000	0.038940
665.000000	0.039020
664.000000	0.038926
663.000000	0.038944
662.000000	0.039099
661.000000	0.039069
660.000000	0.039138
659.000000	0.039196
658.000000	0.039115
657.000000	0.039102
656.000000	0.039266
655.000000	0.039323
654.000000	0.039374
653.000000	0.039432
652.000000	0.039443
651.000000	0.039549
650.000000	0.039651
649.000000	0.039633
648.000000	0.039723
647.000000	0.039836
646.000000	0.039869
645.000000	0.039971
644.000000	0.040207
643.000000	0.040202
642.000000	0.040256
641.000000	0.040353
640.000000	0.040318
639.000000	0.040395
638.000000	0.040627
637.000000	0.040762
636.000000	0.040857
635.000000	0.040950
634.000000	0.040956
633.000000	0.041046
632.000000	0.041222
631.000000	0.041281
630.000000	0.041365
629.000000	0.041437
628.000000	0.041446
627.000000	0.041532
626.000000	0.041818
625.000000	0.041928
624.000000	0.042061
623.000000	0.042169
622.000000	0.042226
621.000000	0.042360
620.000000	0.042631
619.000000	0.042784
618.000000	0.042871
617.000000	0.042920
616.000000	0.042975
615.000000	0.043141
614.000000	0.043418
613.000000	0.043487
612.000000	0.043582
611.000000	0.043754
610.000000	0.043714
609.000000	0.043934
608.000000	0.044204
607.000000	0.044243
606.000000	0.044268
605.000000	0.044369
604.000000	0.044469
603.000000	0.044514
602.000000	0.044755
601.000000	0.044715
600.000000	0.044885
599.000000	0.044901
598.000000	0.044848
597.000000	0.045003
596.000000	0.044966
595.000000	0.045110
594.000000	0.045108
593.000000	0.045217
592.000000	0.045266
591.000000	0.045170
590.000000	0.045266
589.000000	0.045485
588.000000	0.045396
587.000000	0.045559
586.000000	0.045744
585.000000	0.045683
584.000000	0.045780
583.000000	0.046011
582.000000	0.046026
581.000000	0.046236
580.000000	0.046327
579.000000	0.046434
578.000000	0.046621
577.000000	0.046823
576.000000	0.046953
575.000000	0.047073
574.000000	0.047214
573.000000	0.047238
572.000000	0.047451
571.000000	0.047892
570.000000	0.048012
569.000000	0.048155
568.000000	0.048314
567.000000	0.048446
566.000000	0.048688
565.000000	0.048979
564.000000	0.049233
563.000000	0.049432
562.000000	0.049651
561.000000	0.050175
560.000000	0.049954
559.000000	0.050104
558.000000	0.050451
557.000000	0.050626
556.000000	0.050891
555.000000	0.051097
554.000000	0.051299
553.000000	0.051573
552.000000	0.051865
551.000000	0.052003
550.000000	0.052228
549.000000	0.052403
548.000000	0.052529
547.000000	0.052878
546.000000	0.053230
545.000000	0.053408
544.000000	0.053568
543.000000	0.053823
542.000000	0.053973
541.000000	0.054309
540.000000	0.054648
539.000000	0.054804
538.000000	0.055024
537.000000	0.055233
536.000000	0.055446
535.000000	0.055783
534.000000	0.056152
533.000000	0.056313
532.000000	0.056548
531.000000	0.056752
530.000000	0.056886
529.000000	0.057168
528.000000	0.057519
527.000000	0.057793
526.000000	0.058041
525.000000	0.058259
524.000000	0.058409
523.000000	0.058711
522.000000	0.059054
521.000000	0.059255
520.000000	0.059520
519.000000	0.059678
518.000000	0.059899
517.000000	0.060263
516.000000	0.060518
515.000000	0.060680
514.000000	0.060976
513.000000	0.061215
512.000000	0.061444
511.000000	0.061752
510.000000	0.062002
509.000000	0.062173
508.000000	0.062402
507.000000	0.062595
506.000000	0.062836
505.000000	0.063182
504.000000	0.063470
503.000000	0.063649
502.000000	0.063932
501.000000	0.064162
500.000000	0.064370
499.000000	0.064789
498.000000	0.065138
497.000000	0.065358
496.000000	0.065650
495.000000	0.065941
494.000000	0.066162
493.000000	0.066510
492.000000	0.066864
491.000000	0.067123
490.000000	0.067364
489.000000	0.067640
488.000000	0.067946
487.000000	0.068341
486.000000	0.068734
485.000000	0.069109
484.000000	0.069492
483.000000	0.069881
482.000000	0.070372
481.000000	0.071038
480.000000	0.071619
479.000000	0.072109
478.000000	0.072523
477.000000	0.072786
476.000000	0.073118
475.000000	0.073713
474.000000	0.074296
473.000000	0.074785
472.000000	0.075192
471.000000	0.075646
470.000000	0.076145
469.000000	0.076761
468.000000	0.077329
467.000000	0.077864
466.000000	0.078485
465.000000	0.079002
464.000000	0.079577
463.000000	0.080268
462.000000	0.080892
461.000000	0.081413
460.000000	0.082028
459.000000	0.082598
458.000000	0.083169
457.000000	0.083961
456.000000	0.084625
455.000000	0.085316
454.000000	0.085957
453.000000	0.086605
452.000000	0.087317
451.000000	0.088138
450.000000	0.088888
449.000000	0.089647
448.000000	0.090434
447.000000	0.091067
446.000000	0.091908
445.000000	0.092963
444.000000	0.093784
443.000000	0.094586
442.000000	0.095458
441.000000	0.096267
440.000000	0.097161
439.000000	0.098261
438.000000	0.099269
437.000000	0.100173
436.000000	0.101079
435.000000	0.101945
434.000000	0.103042
433.000000	0.104258
432.000000	0.105298
431.000000	0.106355
430.000000	0.107444
429.000000	0.108390
428.000000	0.109543
427.000000	0.110875
426.000000	0.111935
425.000000	0.113073
424.000000	0.114322
423.000000	0.115511
422.000000	0.116842
421.000000	0.118258
420.000000	0.119441
419.000000	0.120732
418.000000	0.122055
417.000000	0.123381
416.000000	0.124821
415.000000	0.126364
414.000000	0.127707
413.000000	0.129236
412.000000	0.130744
411.000000	0.132105
410.000000	0.133605
409.000000	0.135407
408.000000	0.137065
407.000000	0.138654
406.000000	0.140341
405.000000	0.141940
404.000000	0.143711
403.000000	0.145646
402.000000	0.147381
401.000000	0.149243
400.000000	0.151130
399.000000	0.153042
398.000000	0.154840
397.000000	0.157145
396.000000	0.158927
395.000000	0.161281
394.000000	0.163289
393.000000	0.165274
392.000000	0.167487
391.000000	0.169989
390.000000	0.172208
389.000000	0.174452
388.000000	0.176972
387.000000	0.179230
386.000000	0.181754
385.000000	0.184439
384.000000	0.186912
383.000000	0.189604
382.000000	0.192274
381.000000	0.194941
380.000000	0.197704
379.000000	0.200856
378.000000	0.204136
377.000000	0.210077
376.000000	0.209398
375.000000	0.212562
374.000000	0.215702
373.000000	0.218841
372.000000	0.222058
371.000000	0.225220
370.000000	0.228539
369.000000	0.232114
368.000000	0.235517
367.000000	0.238844
366.000000	0.242341
365.000000	0.245855
364.000000	0.249586
363.000000	0.253357
362.000000	0.257034
361.000000	0.260922
360.000000	0.264718
359.000000	0.268470
358.000000	0.272525
357.000000	0.276639
356.000000	0.280546
355.000000	0.284513
354.000000	0.288696
353.000000	0.292709
352.000000	0.296947
351.000000	0.301273
350.000000	0.305524
349.000000	0.309995
348.000000	0.314481
347.000000	0.318797
346.000000	0.323390
345.000000	0.327952
344.000000	0.332434
343.000000	0.337008
342.000000	0.341659
341.000000	0.346265
340.000000	0.351075
339.000000	0.355966
338.000000	0.360596
337.000000	0.365403
336.000000	0.370212
335.000000	0.375107
334.000000	0.380120
333.000000	0.385211
332.000000	0.390188
331.000000	0.395343
330.000000	0.400438
329.000000	0.405530
328.000000	0.410766
327.000000	0.416092
326.000000	0.421436
325.000000	0.426894
324.000000	0.432316
323.000000	0.437792
322.000000	0.443505
321.000000	0.449357
320.000000	0.454924
319.000000	0.460695
318.000000	0.468551
317.000000	0.475433
316.000000	0.477932
315.000000	0.483728
314.000000	0.489952
313.000000	0.496097
312.000000	0.502413
311.000000	0.508792
310.000000	0.515135
309.000000	0.521605
308.000000	0.528361
307.000000	0.534994
306.000000	0.541591
305.000000	0.548261
304.000000	0.555139
303.000000	0.562198
302.000000	0.569276
301.000000	0.576314
300.000000	0.583471
299.000000	0.590611
298.000000	0.597579
297.000000	0.604787
296.000000	0.612299
295.000000	0.619814
294.000000	0.627307
293.000000	0.634816
292.000000	0.642479
291.000000	0.650268
290.000000	0.658231
289.000000	0.666243
288.000000	0.674236
287.000000	0.682200
286.000000	0.690398
285.000000	0.698789
284.000000	0.707150
283.000000	0.715483
282.000000	0.723882
281.000000	0.732197
280.000000	0.740410
279.000000	0.748922
278.000000	0.757508
277.000000	0.765952
276.000000	0.774339
275.000000	0.782871
274.000000	0.791435
273.000000	0.800263
272.000000	0.808995
271.000000	0.817664
270.000000	0.826265
269.000000	0.834651
268.000000	0.843130
267.000000	0.851557
266.000000	0.859928
265.000000	0.868186
264.000000	0.876295
263.000000	0.884259
262.000000	0.891836
261.000000	0.899532
260.000000	0.907000
259.000000	0.914293
258.000000	0.921623
257.000000	0.928817
256.000000	0.935670
255.000000	0.942838
254.000000	0.950076
253.000000	0.957216
252.000000	0.964680
251.000000	0.972227
250.000000	0.979769
249.000000	0.988088
248.000000	0.996611
247.000000	1.005605
246.000000	1.015148
245.000000	1.024980
244.000000	1.035346
243.000000	1.046607
242.000000	1.058405
241.000000	1.070876
240.000000	1.083429
239.000000	1.096516
238.000000	1.109925
237.000000	1.124205
236.000000	1.138734
235.000000	1.153738
234.000000	1.168851
233.000000	1.184176
232.000000	1.199649
231.000000	1.216102
230.000000	1.232112
229.000000	1.248325
228.000000	1.264511
227.000000	1.280613
226.000000	1.296500
225.000000	1.313299
224.000000	1.330470
223.000000	1.347142
222.000000	1.364015
221.000000	1.381745
220.000000	1.399755
219.000000	1.418469
218.000000	1.437516
217.000000	1.457148
216.000000	1.476957
215.000000	1.497298
214.000000	1.517289
213.000000	1.539028
212.000000	1.560467
211.000000	1.581539
210.000000	1.602848
209.000000	1.623280
208.000000	1.642068
207.000000	1.661193
206.000000	1.679153
205.000000	1.697038
204.000000	1.714358
203.000000	1.729975
202.000000	1.744678
201.000000	1.762096
200.000000	1.776821
