PE UV       SUBTECH     SPECTRUM    ASCII       PEDS        4.00        	
-1	
KI302B061010_1CM_CELL.Sample.Raw.asc	
10.10.2008	
10:43:01.00	
10.10.2008	
10:43:01.00	
Hermanni Kaartokallio	
	
200.000000	
1	
Lambda 650	
650N8121101	
PerkinElmer UV WinLab 6.0.2.0723 / 1.61.00 Lambda 650	
	
0	
0	
2	
0	
0	
UV/VIS	
1	
1	
1	
uv/vis/nir detector	
0	
0	
0	
0	
Fix	
 	
0	
0.24	
0	
0	
0	
 	
 	
 	
0	
 	
0	
319.2	
0	
Front	
100	
 	
 	
 	
0	
0	
0	
 	
0	
 	
 	
 	
0	
 	
 	
0	
0	
0	
0	
0	
 	
 	
 	
 	
0	
0	
#HDR	
-1	
-1	
#GR	
nm	
A	
1.0	
0.0	
800.000000	
-1.000000	
601	
8	
10.000000	
0.032098	
#DATA	
800.000000	10.000000
799.000000	0.041421
798.000000	0.041579
797.000000	0.041482
796.000000	0.041826
795.000000	0.041789
794.000000	0.041944
793.000000	0.041928
792.000000	0.042047
791.000000	0.042208
790.000000	0.042228
789.000000	0.042180
788.000000	0.042307
787.000000	0.042485
786.000000	0.042294
785.000000	0.042494
784.000000	0.042730
783.000000	0.042720
782.000000	0.042799
781.000000	0.042895
780.000000	0.042848
779.000000	0.042854
778.000000	0.043038
777.000000	0.042920
776.000000	0.042833
775.000000	0.042858
774.000000	0.042886
773.000000	0.043009
772.000000	0.042949
771.000000	0.042959
770.000000	0.043068
769.000000	0.042948
768.000000	0.042819
767.000000	0.042968
766.000000	0.043058
765.000000	0.043027
764.000000	0.042922
763.000000	0.042922
762.000000	0.042851
761.000000	0.042879
760.000000	0.042889
759.000000	0.042877
758.000000	0.042854
757.000000	0.042764
756.000000	0.042822
755.000000	0.042894
754.000000	0.043023
753.000000	0.043005
752.000000	0.043043
751.000000	0.043071
750.000000	0.042992
749.000000	0.043065
748.000000	0.043209
747.000000	0.043072
746.000000	0.043136
745.000000	0.043147
744.000000	0.043027
743.000000	0.043053
742.000000	0.043105
741.000000	0.043005
740.000000	0.042927
739.000000	0.042748
738.000000	0.042546
737.000000	0.042489
736.000000	0.042366
735.000000	0.041977
734.000000	0.041576
733.000000	0.041106
732.000000	0.040600
731.000000	0.040196
730.000000	0.039793
729.000000	0.039225
728.000000	0.038657
727.000000	0.038197
726.000000	0.037798
725.000000	0.037585
724.000000	0.037447
723.000000	0.037096
722.000000	0.036775
721.000000	0.036453
720.000000	0.036180
719.000000	0.036111
718.000000	0.035914
717.000000	0.035554
716.000000	0.035254
715.000000	0.034970
714.000000	0.034729
713.000000	0.034532
712.000000	0.034342
711.000000	0.034056
710.000000	0.033899
709.000000	0.033662
708.000000	0.033427
707.000000	0.033370
706.000000	0.033205
705.000000	0.033035
704.000000	0.032906
703.000000	0.032744
702.000000	0.032572
701.000000	0.032581
700.000000	0.032574
699.000000	0.032440
698.000000	0.032339
697.000000	0.032181
696.000000	0.032138
695.000000	0.032238
694.000000	0.032249
693.000000	0.032226
692.000000	0.032229
691.000000	0.032218
690.000000	0.032237
689.000000	0.032098
688.000000	0.032439
687.000000	0.032585
686.000000	0.032578
685.000000	0.032676
684.000000	0.032706
683.000000	0.032699
682.000000	0.032694
681.000000	0.032830
680.000000	0.033059
679.000000	0.033152
678.000000	0.033087
677.000000	0.033103
676.000000	0.033100
675.000000	0.033151
674.000000	0.033284
673.000000	0.033266
672.000000	0.033266
671.000000	0.033348
670.000000	0.033252
669.000000	0.033243
668.000000	0.033321
667.000000	0.033318
666.000000	0.033314
665.000000	0.033316
664.000000	0.033207
663.000000	0.033179
662.000000	0.033272
661.000000	0.033250
660.000000	0.033247
659.000000	0.033220
658.000000	0.033139
657.000000	0.033129
656.000000	0.033209
655.000000	0.033176
654.000000	0.033156
653.000000	0.033137
652.000000	0.033041
651.000000	0.033155
650.000000	0.033212
649.000000	0.033181
648.000000	0.033115
647.000000	0.033157
646.000000	0.033125
645.000000	0.033251
644.000000	0.033333
643.000000	0.033262
642.000000	0.033302
641.000000	0.033296
640.000000	0.033246
639.000000	0.033283
638.000000	0.033371
637.000000	0.033377
636.000000	0.033472
635.000000	0.033484
634.000000	0.033388
633.000000	0.033504
632.000000	0.033507
631.000000	0.033499
630.000000	0.033558
629.000000	0.033574
628.000000	0.033529
627.000000	0.033606
626.000000	0.033698
625.000000	0.033712
624.000000	0.033833
623.000000	0.033843
622.000000	0.033868
621.000000	0.033950
620.000000	0.034119
619.000000	0.034051
618.000000	0.034115
617.000000	0.034173
616.000000	0.034161
615.000000	0.034210
614.000000	0.034379
613.000000	0.034374
612.000000	0.034311
611.000000	0.034370
610.000000	0.034375
609.000000	0.034459
608.000000	0.034562
607.000000	0.034512
606.000000	0.034489
605.000000	0.034535
604.000000	0.034475
603.000000	0.034590
602.000000	0.034641
601.000000	0.034560
600.000000	0.034518
599.000000	0.034538
598.000000	0.034298
597.000000	0.034353
596.000000	0.034200
595.000000	0.034171
594.000000	0.034097
593.000000	0.034019
592.000000	0.033898
591.000000	0.033832
590.000000	0.033939
589.000000	0.033963
588.000000	0.033754
587.000000	0.033764
586.000000	0.033787
585.000000	0.033660
584.000000	0.033724
583.000000	0.033841
582.000000	0.033741
581.000000	0.033787
580.000000	0.033750
579.000000	0.033653
578.000000	0.033806
577.000000	0.033957
576.000000	0.033875
575.000000	0.033834
574.000000	0.033877
573.000000	0.033813
572.000000	0.033925
571.000000	0.034099
570.000000	0.034145
569.000000	0.034142
568.000000	0.034223
567.000000	0.034231
566.000000	0.034312
565.000000	0.034548
564.000000	0.034517
563.000000	0.034593
562.000000	0.034751
561.000000	0.035132
560.000000	0.034726
559.000000	0.034795
558.000000	0.034964
557.000000	0.034964
556.000000	0.035115
555.000000	0.035128
554.000000	0.035132
553.000000	0.035293
552.000000	0.035406
551.000000	0.035377
550.000000	0.035413
549.000000	0.035409
548.000000	0.035459
547.000000	0.035578
546.000000	0.035738
545.000000	0.035791
544.000000	0.035783
543.000000	0.035816
542.000000	0.035802
541.000000	0.036008
540.000000	0.036127
539.000000	0.036057
538.000000	0.036141
537.000000	0.036224
536.000000	0.036247
535.000000	0.036411
534.000000	0.036492
533.000000	0.036448
532.000000	0.036499
531.000000	0.036491
530.000000	0.036481
529.000000	0.036592
528.000000	0.036729
527.000000	0.036738
526.000000	0.036783
525.000000	0.036754
524.000000	0.036734
523.000000	0.036899
522.000000	0.036992
521.000000	0.036893
520.000000	0.036944
519.000000	0.036904
518.000000	0.036845
517.000000	0.036966
516.000000	0.037022
515.000000	0.037003
514.000000	0.037021
513.000000	0.037000
512.000000	0.036939
511.000000	0.036993
510.000000	0.037065
509.000000	0.037000
508.000000	0.037002
507.000000	0.036924
506.000000	0.036896
505.000000	0.037012
504.000000	0.037005
503.000000	0.036868
502.000000	0.036904
501.000000	0.036897
500.000000	0.036789
499.000000	0.036886
498.000000	0.036975
497.000000	0.036965
496.000000	0.036954
495.000000	0.036887
494.000000	0.036868
493.000000	0.036937
492.000000	0.036924
491.000000	0.036850
490.000000	0.036856
489.000000	0.036811
488.000000	0.036805
487.000000	0.036925
486.000000	0.036992
485.000000	0.037041
484.000000	0.037073
483.000000	0.037103
482.000000	0.037234
481.000000	0.037562
480.000000	0.037798
479.000000	0.037908
478.000000	0.037929
477.000000	0.037816
476.000000	0.037809
475.000000	0.037991
474.000000	0.038116
473.000000	0.038161
472.000000	0.038259
471.000000	0.038312
470.000000	0.038369
469.000000	0.038563
468.000000	0.038671
467.000000	0.038730
466.000000	0.038917
465.000000	0.039032
464.000000	0.039163
463.000000	0.039364
462.000000	0.039476
461.000000	0.039571
460.000000	0.039696
459.000000	0.039740
458.000000	0.039848
457.000000	0.040147
456.000000	0.040195
455.000000	0.040321
454.000000	0.040429
453.000000	0.040506
452.000000	0.040671
451.000000	0.040911
450.000000	0.041005
449.000000	0.041147
448.000000	0.041306
447.000000	0.041325
446.000000	0.041588
445.000000	0.041871
444.000000	0.042032
443.000000	0.042175
442.000000	0.042338
441.000000	0.042371
440.000000	0.042600
439.000000	0.042902
438.000000	0.043071
437.000000	0.043214
436.000000	0.043408
435.000000	0.043496
434.000000	0.043672
433.000000	0.043996
432.000000	0.044220
431.000000	0.044364
430.000000	0.044537
429.000000	0.044624
428.000000	0.044926
427.000000	0.045252
426.000000	0.045352
425.000000	0.045551
424.000000	0.045797
423.000000	0.045852
422.000000	0.046245
421.000000	0.046620
420.000000	0.046763
419.000000	0.046827
418.000000	0.047081
417.000000	0.047224
416.000000	0.047442
415.000000	0.047756
414.000000	0.047936
413.000000	0.048175
412.000000	0.048364
411.000000	0.048486
410.000000	0.048792
409.000000	0.049103
408.000000	0.049331
407.000000	0.049619
406.000000	0.049912
405.000000	0.050004
404.000000	0.050330
403.000000	0.050897
402.000000	0.050949
401.000000	0.051153
400.000000	0.051461
399.000000	0.051674
398.000000	0.051963
397.000000	0.052459
396.000000	0.052544
395.000000	0.053153
394.000000	0.053197
393.000000	0.053386
392.000000	0.053902
391.000000	0.054354
390.000000	0.054615
389.000000	0.054877
388.000000	0.055360
387.000000	0.055608
386.000000	0.055984
385.000000	0.056598
384.000000	0.056898
383.000000	0.057201
382.000000	0.057705
381.000000	0.057961
380.000000	0.058464
379.000000	0.058876
378.000000	0.059808
377.000000	0.062946
376.000000	0.059703
375.000000	0.060366
374.000000	0.060916
373.000000	0.061466
372.000000	0.061949
371.000000	0.062480
370.000000	0.063076
369.000000	0.063659
368.000000	0.064224
367.000000	0.064750
366.000000	0.065248
365.000000	0.065670
364.000000	0.066374
363.000000	0.067147
362.000000	0.067701
361.000000	0.068353
360.000000	0.068908
359.000000	0.069469
358.000000	0.070140
357.000000	0.070846
356.000000	0.071476
355.000000	0.072087
354.000000	0.072685
353.000000	0.073314
352.000000	0.074162
351.000000	0.074925
350.000000	0.075559
349.000000	0.076327
348.000000	0.076974
347.000000	0.077503
346.000000	0.078428
345.000000	0.079313
344.000000	0.079992
343.000000	0.080766
342.000000	0.081519
341.000000	0.082260
340.000000	0.083155
339.000000	0.084122
338.000000	0.084837
337.000000	0.085686
336.000000	0.086464
335.000000	0.087233
334.000000	0.088318
333.000000	0.089282
332.000000	0.090042
331.000000	0.090926
330.000000	0.091841
329.000000	0.092691
328.000000	0.093820
327.000000	0.094837
326.000000	0.095780
325.000000	0.096761
324.000000	0.097756
323.000000	0.098776
322.000000	0.099947
321.000000	0.101207
320.000000	0.102279
319.000000	0.103441
318.000000	0.106622
317.000000	0.108805
316.000000	0.106682
315.000000	0.107779
314.000000	0.109059
313.000000	0.110189
312.000000	0.111501
311.000000	0.112804
310.000000	0.114165
309.000000	0.115585
308.000000	0.117029
307.000000	0.118483
306.000000	0.119855
305.000000	0.121159
304.000000	0.122690
303.000000	0.124373
302.000000	0.125953
301.000000	0.127458
300.000000	0.129053
299.000000	0.130753
298.000000	0.132390
297.000000	0.134109
296.000000	0.135932
295.000000	0.137810
294.000000	0.139694
293.000000	0.141546
292.000000	0.143497
291.000000	0.145544
290.000000	0.147591
289.000000	0.149634
288.000000	0.151749
287.000000	0.153804
286.000000	0.155942
285.000000	0.158272
284.000000	0.160481
283.000000	0.162656
282.000000	0.164924
281.000000	0.167084
280.000000	0.169257
279.000000	0.171578
278.000000	0.173926
277.000000	0.176206
276.000000	0.178438
275.000000	0.180715
274.000000	0.182971
273.000000	0.185351
272.000000	0.187645
271.000000	0.189963
270.000000	0.192236
269.000000	0.194289
268.000000	0.196509
267.000000	0.198834
266.000000	0.200952
265.000000	0.202997
264.000000	0.205075
263.000000	0.207007
262.000000	0.208818
261.000000	0.210823
260.000000	0.212688
259.000000	0.214466
258.000000	0.216096
257.000000	0.217637
256.000000	0.219315
255.000000	0.220979
254.000000	0.222641
253.000000	0.224086
252.000000	0.225670
251.000000	0.227171
250.000000	0.228786
249.000000	0.230735
248.000000	0.232559
247.000000	0.234280
246.000000	0.236124
245.000000	0.238213
244.000000	0.240548
243.000000	0.243002
242.000000	0.245515
241.000000	0.248191
240.000000	0.250904
239.000000	0.253681
238.000000	0.256981
237.000000	0.260313
236.000000	0.263447
235.000000	0.266830
234.000000	0.270318
233.000000	0.273805
232.000000	0.277547
231.000000	0.281537
230.000000	0.285440
229.000000	0.289373
228.000000	0.293425
227.000000	0.297591
226.000000	0.301899
225.000000	0.306353
224.000000	0.311101
223.000000	0.316254
222.000000	0.321778
221.000000	0.327790
220.000000	0.334309
219.000000	0.341766
218.000000	0.349521
217.000000	0.358811
216.000000	0.369562
215.000000	0.381680
214.000000	0.395635
213.000000	0.412578
212.000000	0.432364
211.000000	0.455379
210.000000	0.482457
209.000000	0.513884
208.000000	0.550511
207.000000	0.593305
206.000000	0.643275
205.000000	0.702279
204.000000	0.772933
203.000000	0.857966
202.000000	0.963440
201.000000	1.095974
200.000000	1.267989
