PE UV       SUBTECH     SPECTRUM    ASCII       PEDS        4.00        
   -1
MQ2_1CM_CELL.Sample.Raw.asc
10/10/08
09:21:31.00
10/10/08
09:21:31.00
Hermanni Kaartokallio

200.000000
1
Lambda 650
650N8121101
PerkinElmer UV WinLab 6.0.2.0723 / 1.61.00 Lambda 650

0
0
2
0
0
UV/VIS
1
1
1
uv/vis/nir detector
0
0
0
0
Fix
 
0
0.24
0
0
0
 
 
 
0
 
0
319.2
0
Front
100
 
 
 
0
0
0
 
0
 
 
 
0
 
 
0
0
0
0
0
 
 
 
 
0
0
#HDR
-1
-1
#GR
nm
A
1.0
0.0
800.000000
-1.000000
601
8
10.000000
0.032359
#DATA
800.000000	10.000000
799.000000	0.041998
798.000000	0.042041
797.000000	0.042000
796.000000	0.042386
795.000000	0.042282
794.000000	0.042304
793.000000	0.042442
792.000000	0.042651
791.000000	0.042621
790.000000	0.042871
789.000000	0.042877
788.000000	0.042977
787.000000	0.042978
786.000000	0.042944
785.000000	0.043137
784.000000	0.043250
783.000000	0.043227
782.000000	0.043374
781.000000	0.043432
780.000000	0.043128
779.000000	0.043275
778.000000	0.043619
777.000000	0.043361
776.000000	0.043254
775.000000	0.043365
774.000000	0.043518
773.000000	0.043390
772.000000	0.043428
771.000000	0.043520
770.000000	0.043564
769.000000	0.043396
768.000000	0.043316
767.000000	0.043485
766.000000	0.043511
765.000000	0.043452
764.000000	0.043549
763.000000	0.043595
762.000000	0.043341
761.000000	0.043391
760.000000	0.043619
759.000000	0.043497
758.000000	0.043380
757.000000	0.043401
756.000000	0.043439
755.000000	0.043460
754.000000	0.043569
753.000000	0.043663
752.000000	0.043724
751.000000	0.043631
750.000000	0.043594
749.000000	0.043805
748.000000	0.043905
747.000000	0.043768
746.000000	0.043920
745.000000	0.044008
744.000000	0.043884
743.000000	0.043995
742.000000	0.044049
741.000000	0.043784
740.000000	0.043632
739.000000	0.043481
738.000000	0.043409
737.000000	0.043307
736.000000	0.043053
735.000000	0.042736
734.000000	0.042376
733.000000	0.041764
732.000000	0.041225
731.000000	0.040898
730.000000	0.040365
729.000000	0.039667
728.000000	0.039107
727.000000	0.038672
726.000000	0.038216
725.000000	0.037979
724.000000	0.037766
723.000000	0.037443
722.000000	0.037098
721.000000	0.036793
720.000000	0.036525
719.000000	0.036357
718.000000	0.036190
717.000000	0.035972
716.000000	0.035747
715.000000	0.035368
714.000000	0.035055
713.000000	0.034940
712.000000	0.034774
711.000000	0.034387
710.000000	0.034195
709.000000	0.033989
708.000000	0.033682
707.000000	0.033546
706.000000	0.033513
705.000000	0.033399
704.000000	0.033226
703.000000	0.033068
702.000000	0.032968
701.000000	0.032961
700.000000	0.032877
699.000000	0.032815
698.000000	0.032757
697.000000	0.032526
696.000000	0.032366
695.000000	0.032440
694.000000	0.032542
693.000000	0.032506
692.000000	0.032499
691.000000	0.032546
690.000000	0.032506
689.000000	0.032359
688.000000	0.032756
687.000000	0.032822
686.000000	0.032833
685.000000	0.033064
684.000000	0.033085
683.000000	0.033026
682.000000	0.033077
681.000000	0.033201
680.000000	0.033393
679.000000	0.033412
678.000000	0.033381
677.000000	0.033439
676.000000	0.033418
675.000000	0.033451
674.000000	0.033647
673.000000	0.033666
672.000000	0.033643
671.000000	0.033688
670.000000	0.033631
669.000000	0.033536
668.000000	0.033648
667.000000	0.033678
666.000000	0.033550
665.000000	0.033446
664.000000	0.033330
663.000000	0.033233
662.000000	0.033298
661.000000	0.033250
660.000000	0.033222
659.000000	0.033158
658.000000	0.032939
657.000000	0.032794
656.000000	0.032966
655.000000	0.032934
654.000000	0.032829
653.000000	0.032819
652.000000	0.032787
651.000000	0.032686
650.000000	0.032745
649.000000	0.032761
648.000000	0.032707
647.000000	0.032640
646.000000	0.032521
645.000000	0.032580
644.000000	0.032710
643.000000	0.032599
642.000000	0.032665
641.000000	0.032678
640.000000	0.032481
639.000000	0.032385
638.000000	0.032615
637.000000	0.032669
636.000000	0.032609
635.000000	0.032615
634.000000	0.032636
633.000000	0.032712
632.000000	0.032632
631.000000	0.032654
630.000000	0.032695
629.000000	0.032620
628.000000	0.032532
627.000000	0.032610
626.000000	0.032788
625.000000	0.032751
624.000000	0.032915
623.000000	0.032938
622.000000	0.032824
621.000000	0.032825
620.000000	0.033171
619.000000	0.033149
618.000000	0.033145
617.000000	0.033137
616.000000	0.033146
615.000000	0.033211
614.000000	0.033319
613.000000	0.033387
612.000000	0.033490
611.000000	0.033481
610.000000	0.033286
609.000000	0.033387
608.000000	0.033599
607.000000	0.033498
606.000000	0.033487
605.000000	0.033729
604.000000	0.033597
603.000000	0.033440
602.000000	0.033709
601.000000	0.033723
600.000000	0.033584
599.000000	0.033521
598.000000	0.033511
597.000000	0.033554
596.000000	0.033468
595.000000	0.033362
594.000000	0.033418
593.000000	0.033382
592.000000	0.033262
591.000000	0.033186
590.000000	0.033235
589.000000	0.033188
588.000000	0.032892
587.000000	0.033016
586.000000	0.033054
585.000000	0.032802
584.000000	0.032736
583.000000	0.032846
582.000000	0.032813
581.000000	0.032795
580.000000	0.032726
579.000000	0.032790
578.000000	0.032876
577.000000	0.032820
576.000000	0.032789
575.000000	0.032753
574.000000	0.032682
573.000000	0.032577
572.000000	0.032840
571.000000	0.032855
570.000000	0.032767
569.000000	0.032820
568.000000	0.032897
567.000000	0.032839
566.000000	0.032962
565.000000	0.033173
564.000000	0.033080
563.000000	0.033116
562.000000	0.033255
561.000000	0.033644
560.000000	0.033123
559.000000	0.033244
558.000000	0.033377
557.000000	0.033280
556.000000	0.033301
555.000000	0.033350
554.000000	0.033415
553.000000	0.033589
552.000000	0.033628
551.000000	0.033657
550.000000	0.033671
549.000000	0.033577
548.000000	0.033545
547.000000	0.033716
546.000000	0.033824
545.000000	0.033779
544.000000	0.033860
543.000000	0.033903
542.000000	0.033700
541.000000	0.033885
540.000000	0.034119
539.000000	0.034024
538.000000	0.034038
537.000000	0.034091
536.000000	0.034087
535.000000	0.034131
534.000000	0.034206
533.000000	0.034290
532.000000	0.034343
531.000000	0.034240
530.000000	0.034140
529.000000	0.034274
528.000000	0.034356
527.000000	0.034312
526.000000	0.034414
525.000000	0.034401
524.000000	0.034254
523.000000	0.034384
522.000000	0.034553
521.000000	0.034478
520.000000	0.034411
519.000000	0.034358
518.000000	0.034382
517.000000	0.034456
516.000000	0.034512
515.000000	0.034548
514.000000	0.034573
513.000000	0.034428
512.000000	0.034251
511.000000	0.034332
510.000000	0.034417
509.000000	0.034296
508.000000	0.034296
507.000000	0.034201
506.000000	0.034026
505.000000	0.034045
504.000000	0.034123
503.000000	0.034016
502.000000	0.033938
501.000000	0.033883
500.000000	0.033786
499.000000	0.033812
498.000000	0.033801
497.000000	0.033730
496.000000	0.033662
495.000000	0.033526
494.000000	0.033487
493.000000	0.033527
492.000000	0.033437
491.000000	0.033243
490.000000	0.033177
489.000000	0.033134
488.000000	0.033070
487.000000	0.033075
486.000000	0.033062
485.000000	0.033016
484.000000	0.032948
483.000000	0.032935
482.000000	0.033050
481.000000	0.033290
480.000000	0.033395
479.000000	0.033516
478.000000	0.033488
477.000000	0.033255
476.000000	0.033224
475.000000	0.033394
474.000000	0.033453
473.000000	0.033383
472.000000	0.033450
471.000000	0.033439
470.000000	0.033349
469.000000	0.033393
468.000000	0.033489
467.000000	0.033551
466.000000	0.033577
465.000000	0.033543
464.000000	0.033627
463.000000	0.033779
462.000000	0.033776
461.000000	0.033810
460.000000	0.033912
459.000000	0.033830
458.000000	0.033725
457.000000	0.033995
456.000000	0.034003
455.000000	0.033972
454.000000	0.033983
453.000000	0.034036
452.000000	0.034034
451.000000	0.034111
450.000000	0.034221
449.000000	0.034321
448.000000	0.034289
447.000000	0.034196
446.000000	0.034481
445.000000	0.034675
444.000000	0.034554
443.000000	0.034561
442.000000	0.034695
441.000000	0.034618
440.000000	0.034692
439.000000	0.034899
438.000000	0.034913
437.000000	0.034873
436.000000	0.034853
435.000000	0.034880
434.000000	0.035049
433.000000	0.035098
432.000000	0.035151
431.000000	0.035318
430.000000	0.035236
429.000000	0.035085
428.000000	0.035251
427.000000	0.035611
426.000000	0.035401
425.000000	0.035364
424.000000	0.035521
423.000000	0.035438
422.000000	0.035477
421.000000	0.035806
420.000000	0.035813
419.000000	0.035717
418.000000	0.035739
417.000000	0.035786
416.000000	0.035817
415.000000	0.035843
414.000000	0.035806
413.000000	0.035878
412.000000	0.035868
411.000000	0.035645
410.000000	0.035747
409.000000	0.036049
408.000000	0.035962
407.000000	0.035831
406.000000	0.035943
405.000000	0.035840
404.000000	0.035839
403.000000	0.036098
402.000000	0.036040
401.000000	0.035978
400.000000	0.035916
399.000000	0.035964
398.000000	0.035975
397.000000	0.036132
396.000000	0.035846
395.000000	0.036275
394.000000	0.036235
393.000000	0.035986
392.000000	0.036036
391.000000	0.036277
390.000000	0.036186
389.000000	0.036061
388.000000	0.036184
387.000000	0.036229
386.000000	0.036151
385.000000	0.036380
384.000000	0.036426
383.000000	0.036412
382.000000	0.036325
381.000000	0.036264
380.000000	0.036411
379.000000	0.036534
378.000000	0.036878
377.000000	0.039593
376.000000	0.036002
375.000000	0.036251
374.000000	0.036404
373.000000	0.036525
372.000000	0.036474
371.000000	0.036374
370.000000	0.036611
369.000000	0.036759
368.000000	0.036794
367.000000	0.036875
366.000000	0.036979
365.000000	0.036775
364.000000	0.036928
363.000000	0.037261
362.000000	0.037201
361.000000	0.037270
360.000000	0.037258
359.000000	0.037306
358.000000	0.037427
357.000000	0.037528
356.000000	0.037553
355.000000	0.037645
354.000000	0.037674
353.000000	0.037571
352.000000	0.037816
351.000000	0.038044
350.000000	0.037900
349.000000	0.037965
348.000000	0.038115
347.000000	0.037998
346.000000	0.038110
345.000000	0.038363
344.000000	0.038454
343.000000	0.038402
342.000000	0.038466
341.000000	0.038588
340.000000	0.038709
339.000000	0.038815
338.000000	0.038759
337.000000	0.038929
336.000000	0.039019
335.000000	0.038904
334.000000	0.039120
333.000000	0.039352
332.000000	0.039156
331.000000	0.039176
330.000000	0.039372
329.000000	0.039399
328.000000	0.039405
327.000000	0.039582
326.000000	0.039702
325.000000	0.039736
324.000000	0.039719
323.000000	0.039751
322.000000	0.039949
321.000000	0.040082
320.000000	0.040062
319.000000	0.040263
318.000000	0.042399
317.000000	0.043520
316.000000	0.040354
315.000000	0.040138
314.000000	0.040288
313.000000	0.040378
312.000000	0.040495
311.000000	0.040544
310.000000	0.040644
309.000000	0.040783
308.000000	0.040880
307.000000	0.040910
306.000000	0.041019
305.000000	0.041048
304.000000	0.041111
303.000000	0.041351
302.000000	0.041539
301.000000	0.041563
300.000000	0.041650
299.000000	0.041853
298.000000	0.041920
297.000000	0.041935
296.000000	0.042072
295.000000	0.042281
294.000000	0.042411
293.000000	0.042416
292.000000	0.042503
291.000000	0.042769
290.000000	0.042890
289.000000	0.042951
288.000000	0.043166
287.000000	0.043191
286.000000	0.043236
285.000000	0.043592
284.000000	0.043894
283.000000	0.043968
282.000000	0.044016
281.000000	0.044164
280.000000	0.044229
279.000000	0.044362
278.000000	0.044566
277.000000	0.044822
276.000000	0.044859
275.000000	0.044830
274.000000	0.044985
273.000000	0.045343
272.000000	0.045467
271.000000	0.045556
270.000000	0.045714
269.000000	0.045734
268.000000	0.045759
267.000000	0.046042
266.000000	0.046353
265.000000	0.046410
264.000000	0.046489
263.000000	0.046632
262.000000	0.046803
261.000000	0.047099
260.000000	0.047227
259.000000	0.047480
258.000000	0.047692
257.000000	0.047691
256.000000	0.047895
255.000000	0.048426
254.000000	0.048630
253.000000	0.048706
252.000000	0.049054
251.000000	0.049254
250.000000	0.049382
249.000000	0.049881
248.000000	0.050368
247.000000	0.050490
246.000000	0.050693
245.000000	0.051113
244.000000	0.051682
243.000000	0.052141
242.000000	0.052477
241.000000	0.052982
240.000000	0.053385
239.000000	0.053681
238.000000	0.054103
237.000000	0.054809
236.000000	0.055071
235.000000	0.055393
234.000000	0.055915
233.000000	0.056371
232.000000	0.056528
231.000000	0.056949
230.000000	0.057398
229.000000	0.057760
228.000000	0.058019
227.000000	0.058307
226.000000	0.058810
225.000000	0.059199
224.000000	0.059587
223.000000	0.060154
222.000000	0.060735
221.000000	0.061217
220.000000	0.061935
219.000000	0.063060
218.000000	0.063579
217.000000	0.064405
216.000000	0.065631
215.000000	0.066706
214.000000	0.067709
213.000000	0.069155
212.000000	0.070658
211.000000	0.072053
210.000000	0.073618
209.000000	0.075337
208.000000	0.077191
207.000000	0.079316
206.000000	0.081385
205.000000	0.083707
204.000000	0.086810
203.000000	0.089556
202.000000	0.092857
201.000000	0.096603
200.000000	0.100421
