PE UV       SUBTECH     SPECTRUM    ASCII       PEDS        4.00        
   -1
MQ3-1CM-CELL.Sample.Raw.asc
10/10/08
11:10:29.00
10/10/08
11:10:29.00
Hermanni Kaartokallio

200.000000
1
Lambda 650
650N8121101
PerkinElmer UV WinLab 6.0.2.0723 / 1.61.00 Lambda 650

0
0
2
0
0
UV/VIS
1
1
1
uv/vis/nir detector
0
0
0
0
Fix
 
0
0.24
0
0
0
 
 
 
0
 
0
319.2
0
Front
100
 
 
 
0
0
0
 
0
 
 
 
0
 
 
0
0
0
0
0
 
 
 
 
0
0
#HDR
-1
-1
#GR
nm
A
1.0
0.0
800.000000
-1.000000
601
8
10.000000
0.032035
#DATA
800.000000	10.000000
799.000000	0.041496
798.000000	0.041629
797.000000	0.041710
796.000000	0.041920
795.000000	0.041901
794.000000	0.041990
793.000000	0.042017
792.000000	0.042083
791.000000	0.042141
790.000000	0.042387
789.000000	0.042229
788.000000	0.042332
787.000000	0.042486
786.000000	0.042441
785.000000	0.042622
784.000000	0.042757
783.000000	0.042731
782.000000	0.042846
781.000000	0.042936
780.000000	0.042788
779.000000	0.042920
778.000000	0.043028
777.000000	0.042876
776.000000	0.042824
775.000000	0.042922
774.000000	0.042927
773.000000	0.043040
772.000000	0.043115
771.000000	0.043023
770.000000	0.043053
769.000000	0.042970
768.000000	0.042970
767.000000	0.043140
766.000000	0.043060
765.000000	0.042943
764.000000	0.043017
763.000000	0.042977
762.000000	0.042864
761.000000	0.043000
760.000000	0.043045
759.000000	0.042955
758.000000	0.042960
757.000000	0.042910
756.000000	0.042858
755.000000	0.042970
754.000000	0.043055
753.000000	0.043045
752.000000	0.043114
751.000000	0.043121
750.000000	0.043178
749.000000	0.043245
748.000000	0.043282
747.000000	0.043237
746.000000	0.043324
745.000000	0.043329
744.000000	0.043201
743.000000	0.043308
742.000000	0.043355
741.000000	0.043212
740.000000	0.043100
739.000000	0.042967
738.000000	0.042750
737.000000	0.042630
736.000000	0.042514
735.000000	0.042148
734.000000	0.041791
733.000000	0.041252
732.000000	0.040765
731.000000	0.040350
730.000000	0.039835
729.000000	0.039289
728.000000	0.038827
727.000000	0.038359
726.000000	0.037902
725.000000	0.037673
724.000000	0.037481
723.000000	0.037195
722.000000	0.036862
721.000000	0.036515
720.000000	0.036236
719.000000	0.036061
718.000000	0.035896
717.000000	0.035608
716.000000	0.035277
715.000000	0.034953
714.000000	0.034675
713.000000	0.034479
712.000000	0.034265
711.000000	0.034003
710.000000	0.033815
709.000000	0.033580
708.000000	0.033334
707.000000	0.033247
706.000000	0.033176
705.000000	0.033004
704.000000	0.032823
703.000000	0.032676
702.000000	0.032545
701.000000	0.032512
700.000000	0.032468
699.000000	0.032339
698.000000	0.032205
697.000000	0.032035
696.000000	0.032051
695.000000	0.032163
694.000000	0.032096
693.000000	0.032081
692.000000	0.032150
691.000000	0.032111
690.000000	0.032139
689.000000	0.032059
688.000000	0.032314
687.000000	0.032374
686.000000	0.032355
685.000000	0.032496
684.000000	0.032492
683.000000	0.032427
682.000000	0.032452
681.000000	0.032624
680.000000	0.032754
679.000000	0.032815
678.000000	0.032836
677.000000	0.032893
676.000000	0.032897
675.000000	0.032991
674.000000	0.033103
673.000000	0.033039
672.000000	0.032968
671.000000	0.033111
670.000000	0.033003
669.000000	0.032892
668.000000	0.033050
667.000000	0.033013
666.000000	0.032891
665.000000	0.032879
664.000000	0.032819
663.000000	0.032833
662.000000	0.032813
661.000000	0.032772
660.000000	0.032802
659.000000	0.032791
658.000000	0.032657
657.000000	0.032645
656.000000	0.032794
655.000000	0.032705
654.000000	0.032752
653.000000	0.032781
652.000000	0.032728
651.000000	0.032693
650.000000	0.032737
649.000000	0.032782
648.000000	0.032703
647.000000	0.032668
646.000000	0.032695
645.000000	0.032867
644.000000	0.032934
643.000000	0.032880
642.000000	0.032954
641.000000	0.032921
640.000000	0.032791
639.000000	0.032862
638.000000	0.033062
637.000000	0.033071
636.000000	0.033026
635.000000	0.033113
634.000000	0.033060
633.000000	0.033093
632.000000	0.033156
631.000000	0.033187
630.000000	0.033157
629.000000	0.033049
628.000000	0.033061
627.000000	0.033221
626.000000	0.033183
625.000000	0.033188
624.000000	0.033400
623.000000	0.033355
622.000000	0.033266
621.000000	0.033363
620.000000	0.033630
619.000000	0.033499
618.000000	0.033521
617.000000	0.033641
616.000000	0.033660
615.000000	0.033676
614.000000	0.033813
613.000000	0.033849
612.000000	0.033783
611.000000	0.033770
610.000000	0.033730
609.000000	0.033901
608.000000	0.033989
607.000000	0.033848
606.000000	0.033893
605.000000	0.033958
604.000000	0.033821
603.000000	0.033849
602.000000	0.034017
601.000000	0.033968
600.000000	0.033864
599.000000	0.033879
598.000000	0.033824
597.000000	0.033803
596.000000	0.033515
595.000000	0.033604
594.000000	0.033612
593.000000	0.033482
592.000000	0.033373
591.000000	0.033302
590.000000	0.033344
589.000000	0.033236
588.000000	0.033102
587.000000	0.033206
586.000000	0.033105
585.000000	0.033016
584.000000	0.033042
583.000000	0.033136
582.000000	0.032968
581.000000	0.032977
580.000000	0.032956
579.000000	0.032871
578.000000	0.032928
577.000000	0.033079
576.000000	0.032959
575.000000	0.032926
574.000000	0.032887
573.000000	0.032878
572.000000	0.032999
571.000000	0.033089
570.000000	0.033143
569.000000	0.033186
568.000000	0.033197
567.000000	0.033133
566.000000	0.033302
565.000000	0.033498
564.000000	0.033451
563.000000	0.033497
562.000000	0.033603
561.000000	0.033998
560.000000	0.033507
559.000000	0.033636
558.000000	0.033786
557.000000	0.033719
556.000000	0.033804
555.000000	0.033890
554.000000	0.033878
553.000000	0.033974
552.000000	0.034141
551.000000	0.034201
550.000000	0.034143
549.000000	0.034100
548.000000	0.034072
547.000000	0.034243
546.000000	0.034269
545.000000	0.034316
544.000000	0.034352
543.000000	0.034342
542.000000	0.034271
541.000000	0.034505
540.000000	0.034627
539.000000	0.034555
538.000000	0.034521
537.000000	0.034576
536.000000	0.034610
535.000000	0.034717
534.000000	0.034731
533.000000	0.034706
532.000000	0.034664
531.000000	0.034544
530.000000	0.034561
529.000000	0.034668
528.000000	0.034703
527.000000	0.034674
526.000000	0.034766
525.000000	0.034728
524.000000	0.034608
523.000000	0.034687
522.000000	0.034821
521.000000	0.034725
520.000000	0.034707
519.000000	0.034686
518.000000	0.034635
517.000000	0.034682
516.000000	0.034681
515.000000	0.034720
514.000000	0.034715
513.000000	0.034549
512.000000	0.034443
511.000000	0.034546
510.000000	0.034537
509.000000	0.034363
508.000000	0.034391
507.000000	0.034302
506.000000	0.034184
505.000000	0.034223
504.000000	0.034241
503.000000	0.034125
502.000000	0.034040
501.000000	0.034014
500.000000	0.033954
499.000000	0.033944
498.000000	0.033945
497.000000	0.033886
496.000000	0.033815
495.000000	0.033722
494.000000	0.033713
493.000000	0.033756
492.000000	0.033641
491.000000	0.033547
490.000000	0.033531
489.000000	0.033426
488.000000	0.033337
487.000000	0.033422
486.000000	0.033444
485.000000	0.033345
484.000000	0.033327
483.000000	0.033436
482.000000	0.033574
481.000000	0.033761
480.000000	0.033916
479.000000	0.034011
478.000000	0.033964
477.000000	0.033764
476.000000	0.033744
475.000000	0.033901
474.000000	0.033964
473.000000	0.033930
472.000000	0.033985
471.000000	0.033960
470.000000	0.033931
469.000000	0.034071
468.000000	0.034179
467.000000	0.034160
466.000000	0.034192
465.000000	0.034217
464.000000	0.034367
463.000000	0.034405
462.000000	0.034401
461.000000	0.034509
460.000000	0.034553
459.000000	0.034446
458.000000	0.034446
457.000000	0.034688
456.000000	0.034649
455.000000	0.034639
454.000000	0.034750
453.000000	0.034741
452.000000	0.034727
451.000000	0.034855
450.000000	0.034977
449.000000	0.035049
448.000000	0.034934
447.000000	0.034873
446.000000	0.035061
445.000000	0.035242
444.000000	0.035209
443.000000	0.035272
442.000000	0.035383
441.000000	0.035254
440.000000	0.035367
439.000000	0.035614
438.000000	0.035598
437.000000	0.035504
436.000000	0.035576
435.000000	0.035622
434.000000	0.035634
433.000000	0.035709
432.000000	0.035870
431.000000	0.035883
430.000000	0.035833
429.000000	0.035731
428.000000	0.035950
427.000000	0.036196
426.000000	0.036004
425.000000	0.035991
424.000000	0.036117
423.000000	0.035990
422.000000	0.036141
421.000000	0.036369
420.000000	0.036311
419.000000	0.036181
418.000000	0.036252
417.000000	0.036262
416.000000	0.036376
415.000000	0.036355
414.000000	0.036339
413.000000	0.036355
412.000000	0.036356
411.000000	0.036132
410.000000	0.036314
409.000000	0.036478
408.000000	0.036415
407.000000	0.036421
406.000000	0.036551
405.000000	0.036378
404.000000	0.036405
403.000000	0.036593
402.000000	0.036530
401.000000	0.036465
400.000000	0.036470
399.000000	0.036517
398.000000	0.036519
397.000000	0.036703
396.000000	0.036532
395.000000	0.036998
394.000000	0.036786
393.000000	0.036551
392.000000	0.036844
391.000000	0.037091
390.000000	0.036830
389.000000	0.036755
388.000000	0.036966
387.000000	0.036904
386.000000	0.036855
385.000000	0.037105
384.000000	0.037138
383.000000	0.037055
382.000000	0.037126
381.000000	0.037056
380.000000	0.037214
379.000000	0.037292
378.000000	0.037730
377.000000	0.040498
376.000000	0.036828
375.000000	0.037013
374.000000	0.037088
373.000000	0.037310
372.000000	0.037186
371.000000	0.037254
370.000000	0.037541
369.000000	0.037682
368.000000	0.037638
367.000000	0.037672
366.000000	0.037861
365.000000	0.037710
364.000000	0.037945
363.000000	0.038182
362.000000	0.038138
361.000000	0.038197
360.000000	0.038183
359.000000	0.038249
358.000000	0.038398
357.000000	0.038494
356.000000	0.038575
355.000000	0.038597
354.000000	0.038691
353.000000	0.038657
352.000000	0.038958
351.000000	0.039054
350.000000	0.038958
349.000000	0.039081
348.000000	0.039219
347.000000	0.039097
346.000000	0.039277
345.000000	0.039473
344.000000	0.039574
343.000000	0.039511
342.000000	0.039533
341.000000	0.039720
340.000000	0.039913
339.000000	0.039909
338.000000	0.039991
337.000000	0.040179
336.000000	0.040116
335.000000	0.040048
334.000000	0.040362
333.000000	0.040523
332.000000	0.040460
331.000000	0.040475
330.000000	0.040554
329.000000	0.040606
328.000000	0.040720
327.000000	0.040963
326.000000	0.041027
325.000000	0.041046
324.000000	0.041089
323.000000	0.041205
322.000000	0.041365
321.000000	0.041460
320.000000	0.041490
319.000000	0.041588
318.000000	0.043676
317.000000	0.044909
316.000000	0.041920
315.000000	0.041799
314.000000	0.041944
313.000000	0.041991
312.000000	0.042115
311.000000	0.042164
310.000000	0.042303
309.000000	0.042492
308.000000	0.042526
307.000000	0.042686
306.000000	0.042877
305.000000	0.042821
304.000000	0.042856
303.000000	0.043168
302.000000	0.043377
301.000000	0.043345
300.000000	0.043444
299.000000	0.043703
298.000000	0.043780
297.000000	0.043866
296.000000	0.044010
295.000000	0.044198
294.000000	0.044283
293.000000	0.044293
292.000000	0.044572
291.000000	0.044859
290.000000	0.044843
289.000000	0.044951
288.000000	0.045221
287.000000	0.045256
286.000000	0.045336
285.000000	0.045713
284.000000	0.045946
283.000000	0.046003
282.000000	0.046134
281.000000	0.046429
280.000000	0.046566
279.000000	0.046609
278.000000	0.046796
277.000000	0.047077
276.000000	0.047136
275.000000	0.047199
274.000000	0.047433
273.000000	0.047728
272.000000	0.047820
271.000000	0.047850
270.000000	0.048088
269.000000	0.048163
268.000000	0.048300
267.000000	0.048589
266.000000	0.048825
265.000000	0.048880
264.000000	0.049039
263.000000	0.049191
262.000000	0.049386
261.000000	0.049628
260.000000	0.049823
259.000000	0.050134
258.000000	0.050346
257.000000	0.050352
256.000000	0.050621
255.000000	0.051003
254.000000	0.051205
253.000000	0.051315
252.000000	0.051791
251.000000	0.052014
250.000000	0.052263
249.000000	0.052715
248.000000	0.053195
247.000000	0.053339
246.000000	0.053683
245.000000	0.054116
244.000000	0.054635
243.000000	0.055205
242.000000	0.055661
241.000000	0.056204
240.000000	0.056611
239.000000	0.056862
238.000000	0.057474
237.000000	0.058144
236.000000	0.058501
235.000000	0.058976
234.000000	0.059540
233.000000	0.059934
232.000000	0.060220
231.000000	0.060850
230.000000	0.061239
229.000000	0.061658
228.000000	0.061900
227.000000	0.062253
226.000000	0.062822
225.000000	0.063220
224.000000	0.063730
223.000000	0.064393
222.000000	0.064892
221.000000	0.065438
220.000000	0.066276
219.000000	0.067388
218.000000	0.068118
217.000000	0.068933
216.000000	0.070273
215.000000	0.071441
214.000000	0.072902
213.000000	0.074355
212.000000	0.075940
211.000000	0.077897
210.000000	0.079509
209.000000	0.081536
208.000000	0.083740
207.000000	0.086143
206.000000	0.088570
205.000000	0.091048
204.000000	0.094514
203.000000	0.097446
202.000000	0.100855
201.000000	0.104828
200.000000	0.109050
