PE UV       SUBTECH     SPECTRUM    ASCII       PEDS        4.00        
   -1
MQ4.Sample.Raw.asc
10/09/03
12:58:42.00
10/09/03
12:58:42.00
Hermanni Kaartokallio

200.000000
1
Lambda 650
650N8121101
PerkinElmer UV WinLab 6.0.2.0723 / 1.61.00 Lambda 650

0
0
2
0
0
UV/VIS
1
1
1
uv/vis/nir detector
0
0
0
0
Fix
 
0
0.24
0
0
0
 
 
 
0
 
0
319.2
0
Front
100
 
 
 
0
0
0
 
0
 
 
 
0
 
 
0
0
0
0
0
 
 
 
 
0
0
#HDR
-1
-1
#GR
nm
A
1.0
0.0
800.000000
-1.000000
601
8
0.156125
0.032659
#DATA
800.000000	0.078365
799.000000	0.078710
798.000000	0.079421
797.000000	0.079797
796.000000	0.080014
795.000000	0.080423
794.000000	0.080853
793.000000	0.081393
792.000000	0.081767
791.000000	0.082391
790.000000	0.082843
789.000000	0.083193
788.000000	0.083667
787.000000	0.084097
786.000000	0.084505
785.000000	0.084930
784.000000	0.085395
783.000000	0.085781
782.000000	0.086112
781.000000	0.086507
780.000000	0.086934
779.000000	0.087253
778.000000	0.087523
777.000000	0.087794
776.000000	0.088127
775.000000	0.088456
774.000000	0.088596
773.000000	0.088900
772.000000	0.089055
771.000000	0.089185
770.000000	0.089371
769.000000	0.089579
768.000000	0.089609
767.000000	0.089794
766.000000	0.089946
765.000000	0.090114
764.000000	0.090151
763.000000	0.090280
762.000000	0.090194
761.000000	0.090334
760.000000	0.090324
759.000000	0.090364
758.000000	0.090362
757.000000	0.090296
756.000000	0.090206
755.000000	0.090327
754.000000	0.090324
753.000000	0.090272
752.000000	0.090224
751.000000	0.090313
750.000000	0.090303
749.000000	0.090323
748.000000	0.090333
747.000000	0.090338
746.000000	0.090313
745.000000	0.090216
744.000000	0.090214
743.000000	0.090127
742.000000	0.089933
741.000000	0.089625
740.000000	0.089195
739.000000	0.088557
738.000000	0.087807
737.000000	0.086773
736.000000	0.085378
735.000000	0.083714
734.000000	0.081605
733.000000	0.079336
732.000000	0.076879
731.000000	0.074266
730.000000	0.071623
729.000000	0.069167
728.000000	0.067031
727.000000	0.065048
726.000000	0.063284
725.000000	0.061769
724.000000	0.060387
723.000000	0.059019
722.000000	0.057793
721.000000	0.056539
720.000000	0.055344
719.000000	0.054279
718.000000	0.053108
717.000000	0.052015
716.000000	0.050999
715.000000	0.049962
714.000000	0.048999
713.000000	0.048024
712.000000	0.047152
711.000000	0.046430
710.000000	0.045733
709.000000	0.045082
708.000000	0.044471
707.000000	0.043915
706.000000	0.043415
705.000000	0.042939
704.000000	0.042425
703.000000	0.041941
702.000000	0.041586
701.000000	0.041305
700.000000	0.040962
699.000000	0.040620
698.000000	0.040341
697.000000	0.040033
696.000000	0.039735
695.000000	0.039558
694.000000	0.039432
693.000000	0.039296
692.000000	0.039163
691.000000	0.039017
690.000000	0.038931
689.000000	0.038871
688.000000	0.038831
687.000000	0.038841
686.000000	0.038855
685.000000	0.038846
684.000000	0.038890
683.000000	0.038921
682.000000	0.038898
681.000000	0.038931
680.000000	0.038987
679.000000	0.039062
678.000000	0.039134
677.000000	0.039198
676.000000	0.039209
675.000000	0.039249
674.000000	0.039304
673.000000	0.039383
672.000000	0.039388
671.000000	0.039405
670.000000	0.039462
669.000000	0.039456
668.000000	0.039463
667.000000	0.039477
666.000000	0.039459
665.000000	0.039472
664.000000	0.039441
663.000000	0.039442
662.000000	0.039389
661.000000	0.039245
660.000000	0.039198
659.000000	0.039074
658.000000	0.038963
657.000000	0.038888
656.000000	0.038695
655.000000	0.038534
654.000000	0.038377
653.000000	0.038216
652.000000	0.038141
651.000000	0.038067
650.000000	0.038006
649.000000	0.037883
648.000000	0.037742
647.000000	0.037712
646.000000	0.037723
645.000000	0.037662
644.000000	0.037532
643.000000	0.037457
642.000000	0.037370
641.000000	0.037315
640.000000	0.037249
639.000000	0.037245
638.000000	0.037106
637.000000	0.037121
636.000000	0.036955
635.000000	0.036842
634.000000	0.036796
633.000000	0.036807
632.000000	0.036707
631.000000	0.036664
630.000000	0.036617
629.000000	0.036511
628.000000	0.036354
627.000000	0.036341
626.000000	0.036282
625.000000	0.036346
624.000000	0.036288
623.000000	0.036259
622.000000	0.036136
621.000000	0.036154
620.000000	0.036177
619.000000	0.036150
618.000000	0.036084
617.000000	0.036080
616.000000	0.036145
615.000000	0.036158
614.000000	0.036114
613.000000	0.036105
612.000000	0.036094
611.000000	0.036051
610.000000	0.036073
609.000000	0.036112
608.000000	0.036050
607.000000	0.035977
606.000000	0.035973
605.000000	0.036018
604.000000	0.035905
603.000000	0.035923
602.000000	0.035717
601.000000	0.035479
600.000000	0.035305
599.000000	0.035020
598.000000	0.034785
597.000000	0.034506
596.000000	0.034267
595.000000	0.034060
594.000000	0.033861
593.000000	0.033842
592.000000	0.033589
591.000000	0.033531
590.000000	0.033554
589.000000	0.033306
588.000000	0.033253
587.000000	0.033223
586.000000	0.033159
585.000000	0.033137
584.000000	0.033012
583.000000	0.032924
582.000000	0.032938
581.000000	0.032916
580.000000	0.032855
579.000000	0.032850
578.000000	0.032859
577.000000	0.032744
576.000000	0.032707
575.000000	0.032778
574.000000	0.032766
573.000000	0.032661
572.000000	0.032730
571.000000	0.032730
570.000000	0.032659
569.000000	0.032701
568.000000	0.032714
567.000000	0.032725
566.000000	0.032689
565.000000	0.032769
564.000000	0.032884
563.000000	0.032827
562.000000	0.032870
561.000000	0.032857
560.000000	0.032898
559.000000	0.032983
558.000000	0.032941
557.000000	0.033064
556.000000	0.033114
555.000000	0.033184
554.000000	0.033315
553.000000	0.033338
552.000000	0.033298
551.000000	0.033337
550.000000	0.033385
549.000000	0.033427
548.000000	0.033474
547.000000	0.033570
546.000000	0.033625
545.000000	0.033580
544.000000	0.033664
543.000000	0.033747
542.000000	0.033780
541.000000	0.033838
540.000000	0.033843
539.000000	0.033929
538.000000	0.033937
537.000000	0.033925
536.000000	0.033988
535.000000	0.034119
534.000000	0.034055
533.000000	0.034094
532.000000	0.034182
531.000000	0.034172
530.000000	0.034147
529.000000	0.034252
528.000000	0.034298
527.000000	0.034283
526.000000	0.034274
525.000000	0.034307
524.000000	0.034326
523.000000	0.034327
522.000000	0.034360
521.000000	0.034441
520.000000	0.034444
519.000000	0.034442
518.000000	0.034461
517.000000	0.034526
516.000000	0.034481
515.000000	0.034501
514.000000	0.034573
513.000000	0.034538
512.000000	0.034484
511.000000	0.034557
510.000000	0.034568
509.000000	0.034475
508.000000	0.034395
507.000000	0.034397
506.000000	0.034438
505.000000	0.034453
504.000000	0.034443
503.000000	0.034418
502.000000	0.034403
501.000000	0.034339
500.000000	0.034399
499.000000	0.034509
498.000000	0.034501
497.000000	0.034509
496.000000	0.034524
495.000000	0.034538
494.000000	0.034495
493.000000	0.034509
492.000000	0.034558
491.000000	0.034489
490.000000	0.034444
489.000000	0.034492
488.000000	0.034525
487.000000	0.034482
486.000000	0.034436
485.000000	0.034407
484.000000	0.034405
483.000000	0.034412
482.000000	0.034426
481.000000	0.034362
480.000000	0.034262
479.000000	0.034249
478.000000	0.034253
477.000000	0.034278
476.000000	0.034291
475.000000	0.034265
474.000000	0.034293
473.000000	0.034323
472.000000	0.034267
471.000000	0.034257
470.000000	0.034323
469.000000	0.034291
468.000000	0.034325
467.000000	0.034471
466.000000	0.034488
465.000000	0.034511
464.000000	0.034542
463.000000	0.034511
462.000000	0.034527
461.000000	0.034551
460.000000	0.034664
459.000000	0.034611
458.000000	0.034548
457.000000	0.034565
456.000000	0.034696
455.000000	0.034763
454.000000	0.034792
453.000000	0.034809
452.000000	0.034904
451.000000	0.034869
450.000000	0.034835
449.000000	0.034944
448.000000	0.034997
447.000000	0.034961
446.000000	0.035033
445.000000	0.035066
444.000000	0.035111
443.000000	0.035104
442.000000	0.035137
441.000000	0.035144
440.000000	0.035198
439.000000	0.035185
438.000000	0.035250
437.000000	0.035283
436.000000	0.035322
435.000000	0.035340
434.000000	0.035364
433.000000	0.035409
432.000000	0.035386
431.000000	0.035500
430.000000	0.035530
429.000000	0.035492
428.000000	0.035545
427.000000	0.035650
426.000000	0.035712
425.000000	0.035724
424.000000	0.035753
423.000000	0.035757
422.000000	0.035958
421.000000	0.035914
420.000000	0.035980
419.000000	0.035965
418.000000	0.036060
417.000000	0.035998
416.000000	0.036134
415.000000	0.036203
414.000000	0.036076
413.000000	0.036156
412.000000	0.036271
411.000000	0.036267
410.000000	0.036259
409.000000	0.036401
408.000000	0.036404
407.000000	0.036296
406.000000	0.036338
405.000000	0.036442
404.000000	0.036538
403.000000	0.036444
402.000000	0.036544
401.000000	0.036698
400.000000	0.036604
399.000000	0.036603
398.000000	0.036724
397.000000	0.036737
396.000000	0.036748
395.000000	0.036718
394.000000	0.036860
393.000000	0.036966
392.000000	0.036914
391.000000	0.036800
390.000000	0.036931
389.000000	0.036918
388.000000	0.036940
387.000000	0.037027
386.000000	0.037123
385.000000	0.036987
384.000000	0.037033
383.000000	0.037217
382.000000	0.037123
381.000000	0.037089
380.000000	0.037163
379.000000	0.037276
378.000000	0.037100
377.000000	0.036981
376.000000	0.037163
375.000000	0.037100
374.000000	0.037080
373.000000	0.037184
372.000000	0.037337
371.000000	0.037212
370.000000	0.037358
369.000000	0.037441
368.000000	0.037428
367.000000	0.037336
366.000000	0.037478
365.000000	0.037559
364.000000	0.037553
363.000000	0.037535
362.000000	0.037673
361.000000	0.037670
360.000000	0.037578
359.000000	0.037662
358.000000	0.037909
357.000000	0.037888
356.000000	0.037765
355.000000	0.037965
354.000000	0.038054
353.000000	0.037883
352.000000	0.038015
351.000000	0.038144
350.000000	0.038178
349.000000	0.038137
348.000000	0.038255
347.000000	0.038376
346.000000	0.038401
345.000000	0.038300
344.000000	0.038504
343.000000	0.038646
342.000000	0.038577
341.000000	0.038558
340.000000	0.038723
339.000000	0.038824
338.000000	0.038785
337.000000	0.038798
336.000000	0.038984
335.000000	0.038967
334.000000	0.039022
333.000000	0.039258
332.000000	0.039247
331.000000	0.039151
330.000000	0.039269
329.000000	0.039473
328.000000	0.039501
327.000000	0.039466
326.000000	0.039563
325.000000	0.039778
324.000000	0.039756
323.000000	0.039740
322.000000	0.039856
321.000000	0.039899
320.000000	0.039910
319.000000	0.040032
318.000000	0.039932
317.000000	0.039839
316.000000	0.039979
315.000000	0.040078
314.000000	0.040101
313.000000	0.040242
312.000000	0.040427
311.000000	0.040361
310.000000	0.040470
309.000000	0.040743
308.000000	0.040812
307.000000	0.040829
306.000000	0.040944
305.000000	0.041099
304.000000	0.041133
303.000000	0.041237
302.000000	0.041371
301.000000	0.041536
300.000000	0.041591
299.000000	0.041638
298.000000	0.041864
297.000000	0.041966
296.000000	0.042000
295.000000	0.042141
294.000000	0.042320
293.000000	0.042348
292.000000	0.042460
291.000000	0.042675
290.000000	0.042871
289.000000	0.043004
288.000000	0.043122
287.000000	0.043366
286.000000	0.043573
285.000000	0.043577
284.000000	0.043685
283.000000	0.043868
282.000000	0.043947
281.000000	0.044104
280.000000	0.044384
279.000000	0.044551
278.000000	0.044582
277.000000	0.044803
276.000000	0.045014
275.000000	0.045095
274.000000	0.045260
273.000000	0.045481
272.000000	0.045657
271.000000	0.045712
270.000000	0.045852
269.000000	0.046113
268.000000	0.046321
267.000000	0.046437
266.000000	0.046652
265.000000	0.046908
264.000000	0.047041
263.000000	0.047177
262.000000	0.047492
261.000000	0.047801
260.000000	0.047834
259.000000	0.048069
258.000000	0.048381
257.000000	0.048609
256.000000	0.048747
255.000000	0.049099
254.000000	0.049370
253.000000	0.049577
252.000000	0.049889
251.000000	0.050222
250.000000	0.050543
249.000000	0.050824
248.000000	0.051138
247.000000	0.051618
246.000000	0.051991
245.000000	0.052223
244.000000	0.052716
243.000000	0.053160
242.000000	0.053520
241.000000	0.054000
240.000000	0.054504
239.000000	0.054920
238.000000	0.055393
237.000000	0.055981
236.000000	0.056590
235.000000	0.057072
234.000000	0.057528
233.000000	0.058159
232.000000	0.058977
231.000000	0.059599
230.000000	0.060238
229.000000	0.061077
228.000000	0.061594
227.000000	0.062261
226.000000	0.063274
225.000000	0.064057
224.000000	0.064893
223.000000	0.065589
222.000000	0.066731
221.000000	0.067723
220.000000	0.068824
219.000000	0.069910
218.000000	0.071112
217.000000	0.072549
216.000000	0.074059
215.000000	0.075838
214.000000	0.077820
213.000000	0.079783
212.000000	0.082122
211.000000	0.084920
210.000000	0.087920
209.000000	0.091351
208.000000	0.095306
207.000000	0.099563
206.000000	0.104637
205.000000	0.110345
204.000000	0.117055
203.000000	0.124640
202.000000	0.133584
201.000000	0.143809
200.000000	0.156125
