PE UV       SUBTECH     SPECTRUM    ASCII       PEDS        4.00        	
-1	
TV204A310810.Sample.Raw.asc	
10.9.2003	
11:44:16.00	
10.9.2003	
11:44:16.00	
Hermanni Kaartokallio	
	
200.000000	
1	
Lambda 650	
650N8121101	
PerkinElmer UV WinLab 6.0.2.0723 / 1.61.00 Lambda 650	
	
0	
0	
2	
0	
0	
UV/VIS	
1	
1	
1	
uv/vis/nir detector	
0	
0	
0	
0	
Fix	
 	
0	
0.24	
0	
0	
0	
 	
 	
 	
0	
 	
0	
319.2	
0	
Front	
100	
 	
 	
 	
0	
0	
0	
 	
0	
 	
 	
 	
0	
 	
 	
0	
0	
0	
0	
0	
 	
 	
 	
 	
0	
0	
#HDR	
-1	
-1	
#GR	
nm	
A	
1.0	
0.0	
800.000000	
-1.000000	
601	
8	
3.637691	
0.037284	
#DATA	
800.000000	0.079936
799.000000	0.080463
798.000000	0.081269
797.000000	0.081584
796.000000	0.081721
795.000000	0.082345
794.000000	0.082771
793.000000	0.083160
792.000000	0.083514
791.000000	0.084297
790.000000	0.084653
789.000000	0.084922
788.000000	0.085393
787.000000	0.085969
786.000000	0.086243
785.000000	0.086747
784.000000	0.087236
783.000000	0.087638
782.000000	0.087859
781.000000	0.088182
780.000000	0.088578
779.000000	0.089000
778.000000	0.089211
777.000000	0.089589
776.000000	0.089877
775.000000	0.090195
774.000000	0.090219
773.000000	0.090631
772.000000	0.090797
771.000000	0.090835
770.000000	0.091002
769.000000	0.091290
768.000000	0.091286
767.000000	0.091362
766.000000	0.091603
765.000000	0.091782
764.000000	0.091747
763.000000	0.091837
762.000000	0.091822
761.000000	0.091931
760.000000	0.091917
759.000000	0.091852
758.000000	0.091910
757.000000	0.091805
756.000000	0.091751
755.000000	0.091902
754.000000	0.091866
753.000000	0.091745
752.000000	0.091757
751.000000	0.091843
750.000000	0.091794
749.000000	0.091784
748.000000	0.091784
747.000000	0.091847
746.000000	0.091758
745.000000	0.091647
744.000000	0.091623
743.000000	0.091547
742.000000	0.091347
741.000000	0.091005
740.000000	0.090607
739.000000	0.089928
738.000000	0.089071
737.000000	0.088109
736.000000	0.086809
735.000000	0.085076
734.000000	0.082974
733.000000	0.080778
732.000000	0.078279
731.000000	0.075731
730.000000	0.073228
729.000000	0.070826
728.000000	0.068635
727.000000	0.066625
726.000000	0.064988
725.000000	0.063613
724.000000	0.062198
723.000000	0.060852
722.000000	0.059659
721.000000	0.058423
720.000000	0.057202
719.000000	0.056216
718.000000	0.055068
717.000000	0.053983
716.000000	0.053018
715.000000	0.052020
714.000000	0.051010
713.000000	0.050058
712.000000	0.049233
711.000000	0.048538
710.000000	0.047821
709.000000	0.047171
708.000000	0.046620
707.000000	0.046138
706.000000	0.045612
705.000000	0.045111
704.000000	0.044685
703.000000	0.044207
702.000000	0.043824
701.000000	0.043608
700.000000	0.043352
699.000000	0.042959
698.000000	0.042621
697.000000	0.042402
696.000000	0.042186
695.000000	0.041950
694.000000	0.041776
693.000000	0.041721
692.000000	0.041607
691.000000	0.041450
690.000000	0.041372
689.000000	0.041324
688.000000	0.041300
687.000000	0.041297
686.000000	0.041337
685.000000	0.041314
684.000000	0.041311
683.000000	0.041387
682.000000	0.041415
681.000000	0.041501
680.000000	0.041572
679.000000	0.041644
678.000000	0.041753
677.000000	0.041787
676.000000	0.041766
675.000000	0.041883
674.000000	0.041933
673.000000	0.041983
672.000000	0.042086
671.000000	0.042145
670.000000	0.042104
669.000000	0.042138
668.000000	0.042232
667.000000	0.042230
666.000000	0.042204
665.000000	0.042257
664.000000	0.042213
663.000000	0.042173
662.000000	0.042176
661.000000	0.042143
660.000000	0.042103
659.000000	0.041993
658.000000	0.041847
657.000000	0.041777
656.000000	0.041596
655.000000	0.041441
654.000000	0.041330
653.000000	0.041251
652.000000	0.041042
651.000000	0.041032
650.000000	0.041061
649.000000	0.040922
648.000000	0.040793
647.000000	0.040772
646.000000	0.040771
645.000000	0.040738
644.000000	0.040683
643.000000	0.040629
642.000000	0.040541
641.000000	0.040483
640.000000	0.040366
639.000000	0.040448
638.000000	0.040306
637.000000	0.040325
636.000000	0.040208
635.000000	0.040128
634.000000	0.039999
633.000000	0.040069
632.000000	0.040085
631.000000	0.039988
630.000000	0.039880
629.000000	0.039826
628.000000	0.039687
627.000000	0.039712
626.000000	0.039698
625.000000	0.039752
624.000000	0.039702
623.000000	0.039687
622.000000	0.039564
621.000000	0.039699
620.000000	0.039696
619.000000	0.039603
618.000000	0.039667
617.000000	0.039706
616.000000	0.039635
615.000000	0.039678
614.000000	0.039730
613.000000	0.039771
612.000000	0.039690
611.000000	0.039740
610.000000	0.039749
609.000000	0.039862
608.000000	0.039756
607.000000	0.039721
606.000000	0.039798
605.000000	0.039763
604.000000	0.039608
603.000000	0.039726
602.000000	0.039578
601.000000	0.039346
600.000000	0.039148
599.000000	0.039027
598.000000	0.038717
597.000000	0.038392
596.000000	0.038317
595.000000	0.038229
594.000000	0.038034
593.000000	0.037940
592.000000	0.037749
591.000000	0.037619
590.000000	0.037711
589.000000	0.037585
588.000000	0.037588
587.000000	0.037524
586.000000	0.037466
585.000000	0.037371
584.000000	0.037441
583.000000	0.037380
582.000000	0.037409
581.000000	0.037467
580.000000	0.037391
579.000000	0.037284
578.000000	0.037456
577.000000	0.037369
576.000000	0.037363
575.000000	0.037421
574.000000	0.037412
573.000000	0.037324
572.000000	0.037425
571.000000	0.037530
570.000000	0.037479
569.000000	0.037515
568.000000	0.037545
567.000000	0.037513
566.000000	0.037668
565.000000	0.037756
564.000000	0.037830
563.000000	0.037874
562.000000	0.037977
561.000000	0.037992
560.000000	0.038052
559.000000	0.038293
558.000000	0.038275
557.000000	0.038352
556.000000	0.038497
555.000000	0.038568
554.000000	0.038690
553.000000	0.038825
552.000000	0.038864
551.000000	0.038925
550.000000	0.038949
549.000000	0.039007
548.000000	0.039095
547.000000	0.039269
546.000000	0.039382
545.000000	0.039427
544.000000	0.039516
543.000000	0.039596
542.000000	0.039687
541.000000	0.039848
540.000000	0.039927
539.000000	0.039982
538.000000	0.040051
537.000000	0.040097
536.000000	0.040172
535.000000	0.040407
534.000000	0.040446
533.000000	0.040465
532.000000	0.040594
531.000000	0.040630
530.000000	0.040672
529.000000	0.040844
528.000000	0.040944
527.000000	0.041011
526.000000	0.041072
525.000000	0.041102
524.000000	0.041135
523.000000	0.041318
522.000000	0.041438
521.000000	0.041524
520.000000	0.041617
519.000000	0.041655
518.000000	0.041708
517.000000	0.041837
516.000000	0.041888
515.000000	0.041963
514.000000	0.042044
513.000000	0.042087
512.000000	0.042138
511.000000	0.042222
510.000000	0.042298
509.000000	0.042302
508.000000	0.042307
507.000000	0.042363
506.000000	0.042443
505.000000	0.042546
504.000000	0.042634
503.000000	0.042710
502.000000	0.042808
501.000000	0.042866
500.000000	0.042916
499.000000	0.043018
498.000000	0.043161
497.000000	0.043250
496.000000	0.043273
495.000000	0.043352
494.000000	0.043462
493.000000	0.043570
492.000000	0.043642
491.000000	0.043728
490.000000	0.043834
489.000000	0.043864
488.000000	0.043925
487.000000	0.044039
486.000000	0.044091
485.000000	0.044156
484.000000	0.044303
483.000000	0.044378
482.000000	0.044478
481.000000	0.044541
480.000000	0.044634
479.000000	0.044729
478.000000	0.044806
477.000000	0.044839
476.000000	0.045008
475.000000	0.045201
474.000000	0.045307
473.000000	0.045454
472.000000	0.045587
471.000000	0.045607
470.000000	0.045779
469.000000	0.045989
468.000000	0.046193
467.000000	0.046360
466.000000	0.046539
465.000000	0.046663
464.000000	0.046847
463.000000	0.047025
462.000000	0.047232
461.000000	0.047399
460.000000	0.047609
459.000000	0.047690
458.000000	0.047902
457.000000	0.048164
456.000000	0.048368
455.000000	0.048582
454.000000	0.048829
453.000000	0.048961
452.000000	0.049220
451.000000	0.049438
450.000000	0.049632
449.000000	0.049883
448.000000	0.050143
447.000000	0.050305
446.000000	0.050623
445.000000	0.050802
444.000000	0.051103
443.000000	0.051334
442.000000	0.051563
441.000000	0.051853
440.000000	0.052106
439.000000	0.052389
438.000000	0.052628
437.000000	0.052914
436.000000	0.053325
435.000000	0.053505
434.000000	0.053780
433.000000	0.054137
432.000000	0.054440
431.000000	0.054819
430.000000	0.055080
429.000000	0.055377
428.000000	0.055757
427.000000	0.056110
426.000000	0.056464
425.000000	0.056924
424.000000	0.057206
423.000000	0.057518
422.000000	0.057984
421.000000	0.058339
420.000000	0.058726
419.000000	0.059141
418.000000	0.059619
417.000000	0.059781
416.000000	0.060344
415.000000	0.060780
414.000000	0.061141
413.000000	0.061620
412.000000	0.061968
411.000000	0.062327
410.000000	0.062858
409.000000	0.063365
408.000000	0.063807
407.000000	0.064166
406.000000	0.064673
405.000000	0.065033
404.000000	0.065599
403.000000	0.066078
402.000000	0.066665
401.000000	0.067228
400.000000	0.067614
399.000000	0.068036
398.000000	0.068770
397.000000	0.069192
396.000000	0.069828
395.000000	0.070424
394.000000	0.070966
393.000000	0.071517
392.000000	0.072185
391.000000	0.072726
390.000000	0.073340
389.000000	0.074020
388.000000	0.074686
387.000000	0.075345
386.000000	0.076057
385.000000	0.076720
384.000000	0.077395
383.000000	0.078102
382.000000	0.078853
381.000000	0.079510
380.000000	0.080426
379.000000	0.081153
378.000000	0.081987
377.000000	0.082577
376.000000	0.083574
375.000000	0.084359
374.000000	0.085129
373.000000	0.086124
372.000000	0.087030
371.000000	0.087973
370.000000	0.088928
369.000000	0.089781
368.000000	0.090677
367.000000	0.091720
366.000000	0.092765
365.000000	0.093698
364.000000	0.094717
363.000000	0.095913
362.000000	0.097080
361.000000	0.098066
360.000000	0.099134
359.000000	0.100284
358.000000	0.101569
357.000000	0.102722
356.000000	0.103934
355.000000	0.105288
354.000000	0.106562
353.000000	0.107725
352.000000	0.109128
351.000000	0.110443
350.000000	0.111757
349.000000	0.113223
348.000000	0.114623
347.000000	0.116077
346.000000	0.117579
345.000000	0.119101
344.000000	0.120739
343.000000	0.122247
342.000000	0.123837
341.000000	0.125514
340.000000	0.127315
339.000000	0.129086
338.000000	0.130819
337.000000	0.132600
336.000000	0.134437
335.000000	0.136348
334.000000	0.138365
333.000000	0.140439
332.000000	0.142407
331.000000	0.144408
330.000000	0.146601
329.000000	0.148860
328.000000	0.151166
327.000000	0.153510
326.000000	0.155897
325.000000	0.158291
324.000000	0.160756
323.000000	0.163272
322.000000	0.166001
321.000000	0.168685
320.000000	0.171254
319.000000	0.173980
318.000000	0.176776
317.000000	0.179482
316.000000	0.182565
315.000000	0.185801
314.000000	0.188985
313.000000	0.192270
312.000000	0.195687
311.000000	0.199110
310.000000	0.202786
309.000000	0.206542
308.000000	0.210344
307.000000	0.214320
306.000000	0.218451
305.000000	0.222682
304.000000	0.227083
303.000000	0.231754
302.000000	0.236479
301.000000	0.241292
300.000000	0.246335
299.000000	0.251485
298.000000	0.256841
297.000000	0.262480
296.000000	0.268334
295.000000	0.274516
294.000000	0.280834
293.000000	0.287179
292.000000	0.293866
291.000000	0.300764
290.000000	0.307732
289.000000	0.314859
288.000000	0.322145
287.000000	0.329410
286.000000	0.336791
285.000000	0.344303
284.000000	0.351768
283.000000	0.359264
282.000000	0.366936
281.000000	0.374637
280.000000	0.382294
279.000000	0.389915
278.000000	0.397517
277.000000	0.405323
276.000000	0.413084
275.000000	0.420738
274.000000	0.428525
273.000000	0.436360
272.000000	0.444076
271.000000	0.451705
270.000000	0.459293
269.000000	0.466710
268.000000	0.474042
267.000000	0.481232
266.000000	0.488381
265.000000	0.495428
264.000000	0.502158
263.000000	0.508664
262.000000	0.515129
261.000000	0.521516
260.000000	0.527762
259.000000	0.533864
258.000000	0.539527
257.000000	0.545046
256.000000	0.550610
255.000000	0.556264
254.000000	0.561574
253.000000	0.566983
252.000000	0.572606
251.000000	0.578288
250.000000	0.583956
249.000000	0.589950
248.000000	0.596102
247.000000	0.602587
246.000000	0.609316
245.000000	0.616487
244.000000	0.624362
243.000000	0.632452
242.000000	0.641099
241.000000	0.650352
240.000000	0.660024
239.000000	0.670139
238.000000	0.681021
237.000000	0.692367
236.000000	0.704186
235.000000	0.716462
234.000000	0.729536
233.000000	0.742881
232.000000	0.756948
231.000000	0.771574
230.000000	0.786728
229.000000	0.802469
228.000000	0.818846
227.000000	0.836437
226.000000	0.856056
225.000000	0.877141
224.000000	0.900785
223.000000	0.927687
222.000000	0.959243
221.000000	0.995929
220.000000	1.039898
219.000000	1.093207
218.000000	1.157498
217.000000	1.236404
216.000000	1.334489
215.000000	1.454699
214.000000	1.601173
213.000000	1.780193
212.000000	1.996878
211.000000	2.255615
210.000000	2.553029
209.000000	2.881972
208.000000	3.193390
207.000000	3.479430
206.000000	3.589532
205.000000	3.635011
204.000000	3.637691
203.000000	3.552244
202.000000	3.467593
201.000000	3.447689
200.000000	3.463239
