PE UV       SUBTECH     SPECTRUM    ASCII       PEDS        4.00        
   -1
TV6-02A.Sample.Raw.asc
11/10/14
12:34:06.00
11/10/14
12:34:06.00
Hermanni Kaartokallio

200.000000
1
Lambda 650
650N8121101
PerkinElmer UV WinLab 6.0.2.0723 / 1.61.00 Lambda 650

0
0
2
0
0
UV/VIS
1
1
1
uv/vis/nir detector
0
0
0
0
Fix
 
0
0.24
0
0
0
 
 
 
0
 
0
319.2
0
Front
100
 
 
 
0
0
0
 
0
 
 
 
0
 
 
0
0
0
0
0
 
 
 
 
0
0
#HDR
-1
-1
#GR
nm
A
1.0
0.0
800.000000
-1.000000
601
8
1.892949
0.035611
#DATA
800.000000	0.043246
799.000000	0.043213
798.000000	0.043433
797.000000	0.043452
796.000000	0.043555
795.000000	0.043483
794.000000	0.043641
793.000000	0.043614
792.000000	0.043649
791.000000	0.043745
790.000000	0.043770
789.000000	0.043992
788.000000	0.043994
787.000000	0.044093
786.000000	0.044059
785.000000	0.044217
784.000000	0.044266
783.000000	0.044300
782.000000	0.044423
781.000000	0.044463
780.000000	0.044490
779.000000	0.044553
778.000000	0.044551
777.000000	0.044617
776.000000	0.044711
775.000000	0.044663
774.000000	0.044692
773.000000	0.044717
772.000000	0.044798
771.000000	0.044824
770.000000	0.044856
769.000000	0.044980
768.000000	0.044927
767.000000	0.044954
766.000000	0.045029
765.000000	0.045014
764.000000	0.044964
763.000000	0.045045
762.000000	0.045089
761.000000	0.045137
760.000000	0.045239
759.000000	0.045220
758.000000	0.045256
757.000000	0.045267
756.000000	0.045307
755.000000	0.045322
754.000000	0.045449
753.000000	0.045399
752.000000	0.045479
751.000000	0.045475
750.000000	0.045359
749.000000	0.045406
748.000000	0.045393
747.000000	0.045395
746.000000	0.045429
745.000000	0.045469
744.000000	0.045506
743.000000	0.045392
742.000000	0.045445
741.000000	0.045397
740.000000	0.045292
739.000000	0.045108
738.000000	0.044927
737.000000	0.044779
736.000000	0.044615
735.000000	0.044257
734.000000	0.043903
733.000000	0.043494
732.000000	0.042979
731.000000	0.042460
730.000000	0.041987
729.000000	0.041560
728.000000	0.041158
727.000000	0.040757
726.000000	0.040387
725.000000	0.040114
724.000000	0.039834
723.000000	0.039641
722.000000	0.039452
721.000000	0.039218
720.000000	0.039060
719.000000	0.038906
718.000000	0.038673
717.000000	0.038445
716.000000	0.038197
715.000000	0.038023
714.000000	0.037795
713.000000	0.037637
712.000000	0.037532
711.000000	0.037360
710.000000	0.037202
709.000000	0.037022
708.000000	0.036881
707.000000	0.036842
706.000000	0.036721
705.000000	0.036611
704.000000	0.036577
703.000000	0.036405
702.000000	0.036273
701.000000	0.036304
700.000000	0.036272
699.000000	0.036186
698.000000	0.036118
697.000000	0.036014
696.000000	0.035964
695.000000	0.035968
694.000000	0.035929
693.000000	0.035942
692.000000	0.035939
691.000000	0.035816
690.000000	0.035718
689.000000	0.035788
688.000000	0.035744
687.000000	0.035656
686.000000	0.035684
685.000000	0.035667
684.000000	0.035648
683.000000	0.035679
682.000000	0.035661
681.000000	0.035670
680.000000	0.035611
679.000000	0.035619
678.000000	0.035697
677.000000	0.035672
676.000000	0.035653
675.000000	0.035644
674.000000	0.035639
673.000000	0.035667
672.000000	0.035689
671.000000	0.035728
670.000000	0.035794
669.000000	0.035748
668.000000	0.035773
667.000000	0.035815
666.000000	0.035830
665.000000	0.035845
664.000000	0.035840
663.000000	0.035837
662.000000	0.035919
661.000000	0.035920
660.000000	0.035844
659.000000	0.035823
658.000000	0.035697
657.000000	0.035763
656.000000	0.035793
655.000000	0.035803
654.000000	0.035818
653.000000	0.035876
652.000000	0.035831
651.000000	0.035837
650.000000	0.035836
649.000000	0.035861
648.000000	0.035846
647.000000	0.035876
646.000000	0.035878
645.000000	0.035880
644.000000	0.035902
643.000000	0.035979
642.000000	0.036004
641.000000	0.036146
640.000000	0.036088
639.000000	0.035954
638.000000	0.036038
637.000000	0.036046
636.000000	0.036033
635.000000	0.036084
634.000000	0.036053
633.000000	0.035961
632.000000	0.036129
631.000000	0.036143
630.000000	0.036124
629.000000	0.036144
628.000000	0.036186
627.000000	0.036111
626.000000	0.036102
625.000000	0.036236
624.000000	0.036250
623.000000	0.036276
622.000000	0.036270
621.000000	0.036253
620.000000	0.036344
619.000000	0.036330
618.000000	0.036400
617.000000	0.036451
616.000000	0.036524
615.000000	0.036381
614.000000	0.036537
613.000000	0.036533
612.000000	0.036620
611.000000	0.036656
610.000000	0.036637
609.000000	0.036630
608.000000	0.036741
607.000000	0.036778
606.000000	0.036909
605.000000	0.036902
604.000000	0.036919
603.000000	0.036863
602.000000	0.036938
601.000000	0.036976
600.000000	0.037009
599.000000	0.037062
598.000000	0.036993
597.000000	0.036945
596.000000	0.037046
595.000000	0.037123
594.000000	0.037053
593.000000	0.037107
592.000000	0.037062
591.000000	0.037038
590.000000	0.037014
589.000000	0.037104
588.000000	0.037161
587.000000	0.037224
586.000000	0.037253
585.000000	0.037207
584.000000	0.037122
583.000000	0.037268
582.000000	0.037206
581.000000	0.037233
580.000000	0.037238
579.000000	0.037209
578.000000	0.037179
577.000000	0.037279
576.000000	0.037331
575.000000	0.037331
574.000000	0.037304
573.000000	0.037303
572.000000	0.037244
571.000000	0.037339
570.000000	0.037390
569.000000	0.037499
568.000000	0.037510
567.000000	0.037391
566.000000	0.037336
565.000000	0.037463
564.000000	0.037564
563.000000	0.037561
562.000000	0.037626
561.000000	0.037443
560.000000	0.037390
559.000000	0.037444
558.000000	0.037524
557.000000	0.037474
556.000000	0.037515
555.000000	0.037573
554.000000	0.037555
553.000000	0.037541
552.000000	0.037542
551.000000	0.037562
550.000000	0.037562
549.000000	0.037558
548.000000	0.037576
547.000000	0.037632
546.000000	0.037625
545.000000	0.037638
544.000000	0.037739
543.000000	0.037714
542.000000	0.037642
541.000000	0.037702
540.000000	0.037803
539.000000	0.037798
538.000000	0.037844
537.000000	0.037967
536.000000	0.037942
535.000000	0.037951
534.000000	0.037956
533.000000	0.038060
532.000000	0.038134
531.000000	0.038152
530.000000	0.038217
529.000000	0.038305
528.000000	0.038343
527.000000	0.038387
526.000000	0.038441
525.000000	0.038481
524.000000	0.038541
523.000000	0.038664
522.000000	0.038727
521.000000	0.038755
520.000000	0.038817
519.000000	0.038877
518.000000	0.038913
517.000000	0.039003
516.000000	0.039076
515.000000	0.039193
514.000000	0.039281
513.000000	0.039326
512.000000	0.039341
511.000000	0.039434
510.000000	0.039533
509.000000	0.039584
508.000000	0.039646
507.000000	0.039656
506.000000	0.039696
505.000000	0.039796
504.000000	0.039828
503.000000	0.039846
502.000000	0.039876
501.000000	0.039967
500.000000	0.039989
499.000000	0.040019
498.000000	0.040040
497.000000	0.040069
496.000000	0.040222
495.000000	0.040263
494.000000	0.040288
493.000000	0.040363
492.000000	0.040391
491.000000	0.040479
490.000000	0.040574
489.000000	0.040568
488.000000	0.040527
487.000000	0.040652
486.000000	0.040770
485.000000	0.040796
484.000000	0.040849
483.000000	0.040893
482.000000	0.040932
481.000000	0.040922
480.000000	0.041023
479.000000	0.041163
478.000000	0.041158
477.000000	0.041157
476.000000	0.041253
475.000000	0.041385
474.000000	0.041477
473.000000	0.041525
472.000000	0.041627
471.000000	0.041695
470.000000	0.041685
469.000000	0.041769
468.000000	0.041916
467.000000	0.042046
466.000000	0.042124
465.000000	0.042155
464.000000	0.042289
463.000000	0.042446
462.000000	0.042515
461.000000	0.042645
460.000000	0.042769
459.000000	0.042840
458.000000	0.042952
457.000000	0.043103
456.000000	0.043227
455.000000	0.043337
454.000000	0.043450
453.000000	0.043553
452.000000	0.043683
451.000000	0.043848
450.000000	0.044008
449.000000	0.044173
448.000000	0.044268
447.000000	0.044393
446.000000	0.044577
445.000000	0.044752
444.000000	0.044870
443.000000	0.045088
442.000000	0.045295
441.000000	0.045400
440.000000	0.045641
439.000000	0.045865
438.000000	0.046023
437.000000	0.046224
436.000000	0.046412
435.000000	0.046553
434.000000	0.046735
433.000000	0.046963
432.000000	0.047208
431.000000	0.047409
430.000000	0.047595
429.000000	0.047820
428.000000	0.048058
427.000000	0.048324
426.000000	0.048514
425.000000	0.048690
424.000000	0.048970
423.000000	0.049098
422.000000	0.049261
421.000000	0.049589
420.000000	0.049814
419.000000	0.050071
418.000000	0.050326
417.000000	0.050532
416.000000	0.050714
415.000000	0.050928
414.000000	0.051313
413.000000	0.051515
412.000000	0.051734
411.000000	0.051893
410.000000	0.052246
409.000000	0.052527
408.000000	0.052669
407.000000	0.053001
406.000000	0.053339
405.000000	0.053427
404.000000	0.053668
403.000000	0.053972
402.000000	0.054272
401.000000	0.054486
400.000000	0.054735
399.000000	0.054993
398.000000	0.055307
397.000000	0.055629
396.000000	0.055898
395.000000	0.056267
394.000000	0.056532
393.000000	0.056673
392.000000	0.057020
391.000000	0.057458
390.000000	0.057747
389.000000	0.058063
388.000000	0.058366
387.000000	0.058698
386.000000	0.059085
385.000000	0.059474
384.000000	0.059808
383.000000	0.060188
382.000000	0.060493
381.000000	0.060890
380.000000	0.061383
379.000000	0.061779
378.000000	0.061948
377.000000	0.062260
376.000000	0.062648
375.000000	0.063151
374.000000	0.063723
373.000000	0.064183
372.000000	0.064507
371.000000	0.065144
370.000000	0.065735
369.000000	0.066187
368.000000	0.066616
367.000000	0.067175
366.000000	0.067708
365.000000	0.068077
364.000000	0.068739
363.000000	0.069300
362.000000	0.069806
361.000000	0.070484
360.000000	0.071081
359.000000	0.071647
358.000000	0.072202
357.000000	0.072713
356.000000	0.073417
355.000000	0.074118
354.000000	0.074646
353.000000	0.075308
352.000000	0.076009
351.000000	0.076694
350.000000	0.077275
349.000000	0.078137
348.000000	0.078931
347.000000	0.079569
346.000000	0.080200
345.000000	0.080967
344.000000	0.081709
343.000000	0.082487
342.000000	0.083226
341.000000	0.084053
340.000000	0.084845
339.000000	0.085573
338.000000	0.086482
337.000000	0.087390
336.000000	0.088145
335.000000	0.088935
334.000000	0.089989
333.000000	0.090885
332.000000	0.091774
331.000000	0.092664
330.000000	0.093745
329.000000	0.094594
328.000000	0.095593
327.000000	0.096699
326.000000	0.097775
325.000000	0.098869
324.000000	0.099930
323.000000	0.101013
322.000000	0.102068
321.000000	0.103185
320.000000	0.104402
319.000000	0.105745
318.000000	0.105947
317.000000	0.105106
316.000000	0.106341
315.000000	0.107656
314.000000	0.109148
313.000000	0.110542
312.000000	0.111793
311.000000	0.113181
310.000000	0.114673
309.000000	0.116173
308.000000	0.117622
307.000000	0.119195
306.000000	0.120854
305.000000	0.122554
304.000000	0.124137
303.000000	0.125892
302.000000	0.127794
301.000000	0.129504
300.000000	0.131389
299.000000	0.133465
298.000000	0.135433
297.000000	0.137431
296.000000	0.139527
295.000000	0.141641
294.000000	0.143849
293.000000	0.146166
292.000000	0.148634
291.000000	0.151047
290.000000	0.153409
289.000000	0.155931
288.000000	0.158459
287.000000	0.160923
286.000000	0.163409
285.000000	0.165970
284.000000	0.168463
283.000000	0.170837
282.000000	0.173300
281.000000	0.175799
280.000000	0.178157
279.000000	0.180428
278.000000	0.182832
277.000000	0.185280
276.000000	0.187596
275.000000	0.189842
274.000000	0.192194
273.000000	0.194556
272.000000	0.196689
271.000000	0.198920
270.000000	0.201188
269.000000	0.203315
268.000000	0.205413
267.000000	0.207583
266.000000	0.209739
265.000000	0.211820
264.000000	0.213839
263.000000	0.215845
262.000000	0.217864
261.000000	0.219831
260.000000	0.221737
259.000000	0.223696
258.000000	0.225655
257.000000	0.227488
256.000000	0.229436
255.000000	0.231465
254.000000	0.233342
253.000000	0.235373
252.000000	0.237570
251.000000	0.239675
250.000000	0.241880
249.000000	0.244207
248.000000	0.246843
247.000000	0.249489
246.000000	0.252224
245.000000	0.255118
244.000000	0.258312
243.000000	0.261600
242.000000	0.265045
241.000000	0.268817
240.000000	0.272601
239.000000	0.276611
238.000000	0.280840
237.000000	0.285366
236.000000	0.289975
235.000000	0.294761
234.000000	0.299845
233.000000	0.305089
232.000000	0.310451
231.000000	0.316029
230.000000	0.321947
229.000000	0.327896
228.000000	0.334072
227.000000	0.340418
226.000000	0.347200
225.000000	0.354272
224.000000	0.361848
223.000000	0.370061
222.000000	0.378940
221.000000	0.388433
220.000000	0.398640
219.000000	0.410584
218.000000	0.423762
217.000000	0.438896
216.000000	0.456572
215.000000	0.476721
214.000000	0.500092
213.000000	0.527343
212.000000	0.559115
211.000000	0.595816
210.000000	0.638484
209.000000	0.687016
208.000000	0.744047
207.000000	0.810393
206.000000	0.888069
205.000000	0.979570
204.000000	1.089866
203.000000	1.225376
202.000000	1.394490
201.000000	1.611719
200.000000	1.892949
