PE UV       SUBTECH     SPECTRUM    ASCII       PEDS        4.00        
   -1
TV6-03A.Sample.Raw.asc
11/10/14
12:42:56.00
11/10/14
12:42:56.00
Hermanni Kaartokallio

200.000000
1
Lambda 650
650N8121101
PerkinElmer UV WinLab 6.0.2.0723 / 1.61.00 Lambda 650

0
0
2
0
0
UV/VIS
1
1
1
uv/vis/nir detector
0
0
0
0
Fix
 
0
0.24
0
0
0
 
 
 
0
 
0
319.2
0
Front
100
 
 
 
0
0
0
 
0
 
 
 
0
 
 
0
0
0
0
0
 
 
 
 
0
0
#HDR
-1
-1
#GR
nm
A
1.0
0.0
800.000000
-1.000000
601
8
2.618959
0.035149
#DATA
800.000000	0.043139
799.000000	0.043106
798.000000	0.043179
797.000000	0.043214
796.000000	0.043403
795.000000	0.043227
794.000000	0.043321
793.000000	0.043370
792.000000	0.043467
791.000000	0.043507
790.000000	0.043517
789.000000	0.043850
788.000000	0.043824
787.000000	0.043652
786.000000	0.043764
785.000000	0.044033
784.000000	0.044022
783.000000	0.043995
782.000000	0.044197
781.000000	0.044314
780.000000	0.044206
779.000000	0.044225
778.000000	0.044466
777.000000	0.044509
776.000000	0.044366
775.000000	0.044445
774.000000	0.044498
773.000000	0.044390
772.000000	0.044505
771.000000	0.044525
770.000000	0.044611
769.000000	0.044602
768.000000	0.044656
767.000000	0.044696
766.000000	0.044739
765.000000	0.044665
764.000000	0.044694
763.000000	0.044818
762.000000	0.044733
761.000000	0.044742
760.000000	0.044876
759.000000	0.044914
758.000000	0.044963
757.000000	0.044974
756.000000	0.045109
755.000000	0.045047
754.000000	0.045106
753.000000	0.045123
752.000000	0.045163
751.000000	0.045051
750.000000	0.044944
749.000000	0.045097
748.000000	0.045142
747.000000	0.045047
746.000000	0.045004
745.000000	0.045099
744.000000	0.045079
743.000000	0.045066
742.000000	0.045149
741.000000	0.045087
740.000000	0.044887
739.000000	0.044742
738.000000	0.044726
737.000000	0.044531
736.000000	0.044203
735.000000	0.043840
734.000000	0.043546
733.000000	0.043115
732.000000	0.042589
731.000000	0.042189
730.000000	0.041673
729.000000	0.041199
728.000000	0.040783
727.000000	0.040391
726.000000	0.039963
725.000000	0.039707
724.000000	0.039522
723.000000	0.039325
722.000000	0.039083
721.000000	0.038783
720.000000	0.038678
719.000000	0.038502
718.000000	0.038190
717.000000	0.038022
716.000000	0.037870
715.000000	0.037652
714.000000	0.037395
713.000000	0.037280
712.000000	0.037136
711.000000	0.036916
710.000000	0.036780
709.000000	0.036638
708.000000	0.036481
707.000000	0.036369
706.000000	0.036304
705.000000	0.036259
704.000000	0.036144
703.000000	0.035953
702.000000	0.035873
701.000000	0.035892
700.000000	0.035815
699.000000	0.035759
698.000000	0.035754
697.000000	0.035609
696.000000	0.035510
695.000000	0.035565
694.000000	0.035559
693.000000	0.035472
692.000000	0.035470
691.000000	0.035458
690.000000	0.035307
689.000000	0.035292
688.000000	0.035344
687.000000	0.035310
686.000000	0.035260
685.000000	0.035302
684.000000	0.035354
683.000000	0.035281
682.000000	0.035194
681.000000	0.035247
680.000000	0.035242
679.000000	0.035226
678.000000	0.035243
677.000000	0.035267
676.000000	0.035252
675.000000	0.035149
674.000000	0.035166
673.000000	0.035259
672.000000	0.035235
671.000000	0.035198
670.000000	0.035333
669.000000	0.035338
668.000000	0.035267
667.000000	0.035319
666.000000	0.035393
665.000000	0.035330
664.000000	0.035410
663.000000	0.035379
662.000000	0.035397
661.000000	0.035350
660.000000	0.035291
659.000000	0.035310
658.000000	0.035257
657.000000	0.035224
656.000000	0.035234
655.000000	0.035282
654.000000	0.035295
653.000000	0.035235
652.000000	0.035274
651.000000	0.035368
650.000000	0.035310
649.000000	0.035329
648.000000	0.035391
647.000000	0.035410
646.000000	0.035332
645.000000	0.035329
644.000000	0.035388
643.000000	0.035403
642.000000	0.035387
641.000000	0.035426
640.000000	0.035474
639.000000	0.035434
638.000000	0.035446
637.000000	0.035553
636.000000	0.035538
635.000000	0.035484
634.000000	0.035462
633.000000	0.035516
632.000000	0.035565
631.000000	0.035582
630.000000	0.035599
629.000000	0.035637
628.000000	0.035588
627.000000	0.035615
626.000000	0.035633
625.000000	0.035694
624.000000	0.035635
623.000000	0.035701
622.000000	0.035729
621.000000	0.035696
620.000000	0.035712
619.000000	0.035843
618.000000	0.035921
617.000000	0.035802
616.000000	0.035839
615.000000	0.035931
614.000000	0.035962
613.000000	0.035870
612.000000	0.036037
611.000000	0.036145
610.000000	0.036036
609.000000	0.036012
608.000000	0.036145
607.000000	0.036255
606.000000	0.036228
605.000000	0.036205
604.000000	0.036334
603.000000	0.036338
602.000000	0.036366
601.000000	0.036406
600.000000	0.036472
599.000000	0.036364
598.000000	0.036230
597.000000	0.036405
596.000000	0.036383
595.000000	0.036391
594.000000	0.036335
593.000000	0.036450
592.000000	0.036430
591.000000	0.036298
590.000000	0.036384
589.000000	0.036464
588.000000	0.036417
587.000000	0.036421
586.000000	0.036458
585.000000	0.036435
584.000000	0.036387
583.000000	0.036405
582.000000	0.036473
581.000000	0.036466
580.000000	0.036402
579.000000	0.036452
578.000000	0.036477
577.000000	0.036422
576.000000	0.036433
575.000000	0.036515
574.000000	0.036530
573.000000	0.036451
572.000000	0.036499
571.000000	0.036564
570.000000	0.036542
569.000000	0.036558
568.000000	0.036594
567.000000	0.036571
566.000000	0.036502
565.000000	0.036602
564.000000	0.036704
563.000000	0.036618
562.000000	0.036551
561.000000	0.036547
560.000000	0.036476
559.000000	0.036559
558.000000	0.036636
557.000000	0.036665
556.000000	0.036650
555.000000	0.036597
554.000000	0.036701
553.000000	0.036640
552.000000	0.036564
551.000000	0.036612
550.000000	0.036617
549.000000	0.036609
548.000000	0.036534
547.000000	0.036657
546.000000	0.036689
545.000000	0.036642
544.000000	0.036713
543.000000	0.036744
542.000000	0.036706
541.000000	0.036670
540.000000	0.036791
539.000000	0.036909
538.000000	0.036911
537.000000	0.036896
536.000000	0.036913
535.000000	0.036978
534.000000	0.036951
533.000000	0.037031
532.000000	0.037159
531.000000	0.037128
530.000000	0.037097
529.000000	0.037208
528.000000	0.037285
527.000000	0.037329
526.000000	0.037349
525.000000	0.037404
524.000000	0.037429
523.000000	0.037451
522.000000	0.037573
521.000000	0.037686
520.000000	0.037693
519.000000	0.037665
518.000000	0.037761
517.000000	0.037930
516.000000	0.037900
515.000000	0.037950
514.000000	0.038082
513.000000	0.038131
512.000000	0.038109
511.000000	0.038194
510.000000	0.038362
509.000000	0.038359
508.000000	0.038303
507.000000	0.038372
506.000000	0.038458
505.000000	0.038481
504.000000	0.038523
503.000000	0.038602
502.000000	0.038619
501.000000	0.038579
500.000000	0.038620
499.000000	0.038699
498.000000	0.038584
497.000000	0.038560
496.000000	0.038774
495.000000	0.038817
494.000000	0.038786
493.000000	0.038856
492.000000	0.038918
491.000000	0.038978
490.000000	0.039019
489.000000	0.039065
488.000000	0.039095
487.000000	0.039110
486.000000	0.039084
485.000000	0.039132
484.000000	0.039199
483.000000	0.039157
482.000000	0.039178
481.000000	0.039276
480.000000	0.039353
479.000000	0.039361
478.000000	0.039409
477.000000	0.039470
476.000000	0.039507
475.000000	0.039566
474.000000	0.039673
473.000000	0.039687
472.000000	0.039689
471.000000	0.039755
470.000000	0.039803
469.000000	0.039815
468.000000	0.039906
467.000000	0.040040
466.000000	0.040072
465.000000	0.040092
464.000000	0.040165
463.000000	0.040349
462.000000	0.040435
461.000000	0.040422
460.000000	0.040600
459.000000	0.040690
458.000000	0.040739
457.000000	0.040797
456.000000	0.040934
455.000000	0.041071
454.000000	0.041162
453.000000	0.041246
452.000000	0.041388
451.000000	0.041465
450.000000	0.041540
449.000000	0.041722
448.000000	0.041860
447.000000	0.041863
446.000000	0.041987
445.000000	0.042195
444.000000	0.042311
443.000000	0.042379
442.000000	0.042592
441.000000	0.042722
440.000000	0.042874
439.000000	0.042992
438.000000	0.043227
437.000000	0.043413
436.000000	0.043465
435.000000	0.043534
434.000000	0.043767
433.000000	0.043930
432.000000	0.044068
431.000000	0.044209
430.000000	0.044449
429.000000	0.044746
428.000000	0.044712
427.000000	0.044963
426.000000	0.045145
425.000000	0.045218
424.000000	0.045457
423.000000	0.045657
422.000000	0.045755
421.000000	0.045862
420.000000	0.046065
419.000000	0.046328
418.000000	0.046455
417.000000	0.046549
416.000000	0.046825
415.000000	0.047034
414.000000	0.047197
413.000000	0.047334
412.000000	0.047682
411.000000	0.047686
410.000000	0.047846
409.000000	0.048079
408.000000	0.048251
407.000000	0.048424
406.000000	0.048630
405.000000	0.048833
404.000000	0.048943
403.000000	0.049119
402.000000	0.049364
401.000000	0.049468
400.000000	0.049633
399.000000	0.049764
398.000000	0.050139
397.000000	0.050302
396.000000	0.050477
395.000000	0.050657
394.000000	0.050944
393.000000	0.051081
392.000000	0.051099
391.000000	0.051474
390.000000	0.051745
389.000000	0.051921
388.000000	0.052068
387.000000	0.052346
386.000000	0.052707
385.000000	0.052862
384.000000	0.053075
383.000000	0.053453
382.000000	0.053646
381.000000	0.053703
380.000000	0.054194
379.000000	0.054540
378.000000	0.054538
377.000000	0.054719
376.000000	0.055063
375.000000	0.055392
374.000000	0.055822
373.000000	0.056135
372.000000	0.056384
371.000000	0.056689
370.000000	0.057076
369.000000	0.057563
368.000000	0.057814
367.000000	0.058187
366.000000	0.058600
365.000000	0.058974
364.000000	0.059388
363.000000	0.059740
362.000000	0.060081
361.000000	0.060539
360.000000	0.060923
359.000000	0.061303
358.000000	0.061729
357.000000	0.062093
356.000000	0.062498
355.000000	0.063025
354.000000	0.063467
353.000000	0.063927
352.000000	0.064388
351.000000	0.064918
350.000000	0.065377
349.000000	0.065810
348.000000	0.066452
347.000000	0.066840
346.000000	0.067307
345.000000	0.067796
344.000000	0.068300
343.000000	0.068827
342.000000	0.069336
341.000000	0.069919
340.000000	0.070600
339.000000	0.071079
338.000000	0.071632
337.000000	0.072280
336.000000	0.072922
335.000000	0.073491
334.000000	0.074245
333.000000	0.074832
332.000000	0.075557
331.000000	0.076213
330.000000	0.076882
329.000000	0.077513
328.000000	0.078287
327.000000	0.078983
326.000000	0.079751
325.000000	0.080645
324.000000	0.081366
323.000000	0.082057
322.000000	0.082909
321.000000	0.083765
320.000000	0.084529
319.000000	0.085516
318.000000	0.085361
317.000000	0.083895
316.000000	0.084879
315.000000	0.085794
314.000000	0.086763
313.000000	0.087848
312.000000	0.088823
311.000000	0.089846
310.000000	0.090893
309.000000	0.092007
308.000000	0.093106
307.000000	0.094197
306.000000	0.095330
305.000000	0.096552
304.000000	0.097706
303.000000	0.098976
302.000000	0.100379
301.000000	0.101754
300.000000	0.103121
299.000000	0.104490
298.000000	0.105961
297.000000	0.107527
296.000000	0.109065
295.000000	0.110675
294.000000	0.112406
293.000000	0.114052
292.000000	0.115741
291.000000	0.117624
290.000000	0.119480
289.000000	0.121316
288.000000	0.123181
287.000000	0.125105
286.000000	0.127014
285.000000	0.128928
284.000000	0.130838
283.000000	0.132648
282.000000	0.134521
281.000000	0.136386
280.000000	0.138242
279.000000	0.140184
278.000000	0.142123
277.000000	0.143912
276.000000	0.145748
275.000000	0.147582
274.000000	0.149378
273.000000	0.151269
272.000000	0.153126
271.000000	0.154947
270.000000	0.156761
269.000000	0.158591
268.000000	0.160359
267.000000	0.162040
266.000000	0.163768
265.000000	0.165567
264.000000	0.167256
263.000000	0.168869
262.000000	0.170515
261.000000	0.172178
260.000000	0.173760
259.000000	0.175330
258.000000	0.177050
257.000000	0.178602
256.000000	0.180071
255.000000	0.181676
254.000000	0.183277
253.000000	0.184849
252.000000	0.186507
251.000000	0.188246
250.000000	0.190127
249.000000	0.192049
248.000000	0.194055
247.000000	0.196200
246.000000	0.198382
245.000000	0.200595
244.000000	0.203058
243.000000	0.205699
242.000000	0.208447
241.000000	0.211374
240.000000	0.214360
239.000000	0.217574
238.000000	0.220833
237.000000	0.224369
236.000000	0.228099
235.000000	0.231859
234.000000	0.235876
233.000000	0.239860
232.000000	0.244070
231.000000	0.248524
230.000000	0.253061
229.000000	0.257591
228.000000	0.262337
227.000000	0.267124
226.000000	0.272352
225.000000	0.278164
224.000000	0.284205
223.000000	0.290928
222.000000	0.298575
221.000000	0.307363
220.000000	0.317561
219.000000	0.329482
218.000000	0.343575
217.000000	0.360686
216.000000	0.380898
215.000000	0.405505
214.000000	0.435832
213.000000	0.472714
212.000000	0.516971
211.000000	0.569994
210.000000	0.632772
209.000000	0.706512
208.000000	0.793924
207.000000	0.897700
206.000000	1.020261
205.000000	1.166871
204.000000	1.343246
203.000000	1.560422
202.000000	1.831106
201.000000	2.174521
200.000000	2.618959
