PE UV       SUBTECH     SPECTRUM    ASCII       PEDS        4.00        
   -1
TV6-04A.Sample.Raw.asc
11/10/14
13:00:15.00
11/10/14
13:00:15.00
Hermanni Kaartokallio

200.000000
1
Lambda 650
650N8121101
PerkinElmer UV WinLab 6.0.2.0723 / 1.61.00 Lambda 650

0
0
2
0
0
UV/VIS
1
1
1
uv/vis/nir detector
0
0
0
0
Fix
 
0
0.24
0
0
0
 
 
 
0
 
0
319.2
0
Front
100
 
 
 
0
0
0
 
0
 
 
 
0
 
 
0
0
0
0
0
 
 
 
 
0
0
#HDR
-1
-1
#GR
nm
A
1.0
0.0
800.000000
-1.000000
601
8
3.115065
0.035286
#DATA
800.000000	0.043204
799.000000	0.043150
798.000000	0.043407
797.000000	0.043421
796.000000	0.043511
795.000000	0.043526
794.000000	0.043635
793.000000	0.043650
792.000000	0.043675
791.000000	0.043791
790.000000	0.043698
789.000000	0.043966
788.000000	0.044083
787.000000	0.044082
786.000000	0.043978
785.000000	0.044158
784.000000	0.044285
783.000000	0.044181
782.000000	0.044278
781.000000	0.044463
780.000000	0.044540
779.000000	0.044524
778.000000	0.044584
777.000000	0.044657
776.000000	0.044744
775.000000	0.044635
774.000000	0.044783
773.000000	0.044688
772.000000	0.044709
771.000000	0.044771
770.000000	0.044913
769.000000	0.044882
768.000000	0.044845
767.000000	0.044946
766.000000	0.045070
765.000000	0.045032
764.000000	0.045026
763.000000	0.045055
762.000000	0.045138
761.000000	0.045071
760.000000	0.045195
759.000000	0.045280
758.000000	0.045317
757.000000	0.045238
756.000000	0.045385
755.000000	0.045377
754.000000	0.045412
753.000000	0.045350
752.000000	0.045496
751.000000	0.045425
750.000000	0.045347
749.000000	0.045391
748.000000	0.045458
747.000000	0.045354
746.000000	0.045283
745.000000	0.045366
744.000000	0.045405
743.000000	0.045399
742.000000	0.045387
741.000000	0.045345
740.000000	0.045162
739.000000	0.045038
738.000000	0.044917
737.000000	0.044792
736.000000	0.044440
735.000000	0.044082
734.000000	0.043718
733.000000	0.043342
732.000000	0.042808
731.000000	0.042336
730.000000	0.041910
729.000000	0.041482
728.000000	0.040988
727.000000	0.040538
726.000000	0.040224
725.000000	0.039951
724.000000	0.039716
723.000000	0.039497
722.000000	0.039308
721.000000	0.038975
720.000000	0.038769
719.000000	0.038656
718.000000	0.038425
717.000000	0.038177
716.000000	0.038023
715.000000	0.037878
714.000000	0.037677
713.000000	0.037512
712.000000	0.037336
711.000000	0.037142
710.000000	0.036962
709.000000	0.036809
708.000000	0.036648
707.000000	0.036571
706.000000	0.036485
705.000000	0.036419
704.000000	0.036401
703.000000	0.036259
702.000000	0.036153
701.000000	0.036150
700.000000	0.036103
699.000000	0.036026
698.000000	0.035964
697.000000	0.035878
696.000000	0.035791
695.000000	0.035770
694.000000	0.035758
693.000000	0.035703
692.000000	0.035635
691.000000	0.035553
690.000000	0.035470
689.000000	0.035503
688.000000	0.035501
687.000000	0.035467
686.000000	0.035460
685.000000	0.035466
684.000000	0.035504
683.000000	0.035497
682.000000	0.035417
681.000000	0.035363
680.000000	0.035346
679.000000	0.035395
678.000000	0.035395
677.000000	0.035356
676.000000	0.035380
675.000000	0.035314
674.000000	0.035286
673.000000	0.035391
672.000000	0.035396
671.000000	0.035333
670.000000	0.035413
669.000000	0.035406
668.000000	0.035456
667.000000	0.035505
666.000000	0.035459
665.000000	0.035470
664.000000	0.035527
663.000000	0.035503
662.000000	0.035527
661.000000	0.035516
660.000000	0.035473
659.000000	0.035475
658.000000	0.035401
657.000000	0.035399
656.000000	0.035400
655.000000	0.035486
654.000000	0.035459
653.000000	0.035414
652.000000	0.035386
651.000000	0.035433
650.000000	0.035430
649.000000	0.035485
648.000000	0.035475
647.000000	0.035533
646.000000	0.035508
645.000000	0.035422
644.000000	0.035467
643.000000	0.035551
642.000000	0.035581
641.000000	0.035548
640.000000	0.035553
639.000000	0.035552
638.000000	0.035509
637.000000	0.035564
636.000000	0.035606
635.000000	0.035554
634.000000	0.035503
633.000000	0.035495
632.000000	0.035638
631.000000	0.035658
630.000000	0.035607
629.000000	0.035686
628.000000	0.035668
627.000000	0.035700
626.000000	0.035638
625.000000	0.035770
624.000000	0.035731
623.000000	0.035682
622.000000	0.035764
621.000000	0.035786
620.000000	0.035783
619.000000	0.035793
618.000000	0.035956
617.000000	0.035961
616.000000	0.035925
615.000000	0.035875
614.000000	0.035990
613.000000	0.035887
612.000000	0.036041
611.000000	0.036080
610.000000	0.036038
609.000000	0.036081
608.000000	0.036113
607.000000	0.036176
606.000000	0.036265
605.000000	0.036242
604.000000	0.036284
603.000000	0.036341
602.000000	0.036339
601.000000	0.036348
600.000000	0.036371
599.000000	0.036306
598.000000	0.036214
597.000000	0.036353
596.000000	0.036276
595.000000	0.036378
594.000000	0.036268
593.000000	0.036345
592.000000	0.036339
591.000000	0.036300
590.000000	0.036352
589.000000	0.036394
588.000000	0.036398
587.000000	0.036389
586.000000	0.036346
585.000000	0.036333
584.000000	0.036397
583.000000	0.036372
582.000000	0.036351
581.000000	0.036421
580.000000	0.036334
579.000000	0.036376
578.000000	0.036334
577.000000	0.036294
576.000000	0.036321
575.000000	0.036394
574.000000	0.036376
573.000000	0.036343
572.000000	0.036311
571.000000	0.036300
570.000000	0.036355
569.000000	0.036392
568.000000	0.036401
567.000000	0.036374
566.000000	0.036400
565.000000	0.036378
564.000000	0.036421
563.000000	0.036400
562.000000	0.036414
561.000000	0.036353
560.000000	0.036312
559.000000	0.036360
558.000000	0.036375
557.000000	0.036424
556.000000	0.036425
555.000000	0.036398
554.000000	0.036387
553.000000	0.036395
552.000000	0.036335
551.000000	0.036385
550.000000	0.036333
549.000000	0.036368
548.000000	0.036369
547.000000	0.036433
546.000000	0.036369
545.000000	0.036381
544.000000	0.036467
543.000000	0.036445
542.000000	0.036407
541.000000	0.036392
540.000000	0.036471
539.000000	0.036472
538.000000	0.036521
537.000000	0.036615
536.000000	0.036542
535.000000	0.036552
534.000000	0.036614
533.000000	0.036731
532.000000	0.036754
531.000000	0.036760
530.000000	0.036819
529.000000	0.036829
528.000000	0.036828
527.000000	0.036912
526.000000	0.036989
525.000000	0.036969
524.000000	0.036972
523.000000	0.037093
522.000000	0.037172
521.000000	0.037207
520.000000	0.037277
519.000000	0.037311
518.000000	0.037277
517.000000	0.037349
516.000000	0.037462
515.000000	0.037511
514.000000	0.037592
513.000000	0.037668
512.000000	0.037702
511.000000	0.037750
510.000000	0.037771
509.000000	0.037839
508.000000	0.037879
507.000000	0.037900
506.000000	0.037970
505.000000	0.038025
504.000000	0.038033
503.000000	0.038047
502.000000	0.038051
501.000000	0.038097
500.000000	0.038097
499.000000	0.038106
498.000000	0.038073
497.000000	0.038051
496.000000	0.038148
495.000000	0.038206
494.000000	0.038244
493.000000	0.038286
492.000000	0.038307
491.000000	0.038356
490.000000	0.038412
489.000000	0.038358
488.000000	0.038292
487.000000	0.038386
486.000000	0.038441
485.000000	0.038416
484.000000	0.038486
483.000000	0.038524
482.000000	0.038512
481.000000	0.038484
480.000000	0.038526
479.000000	0.038616
478.000000	0.038607
477.000000	0.038594
476.000000	0.038669
475.000000	0.038739
474.000000	0.038768
473.000000	0.038792
472.000000	0.038882
471.000000	0.038942
470.000000	0.038923
469.000000	0.038972
468.000000	0.039036
467.000000	0.039081
466.000000	0.039145
465.000000	0.039209
464.000000	0.039264
463.000000	0.039349
462.000000	0.039433
461.000000	0.039483
460.000000	0.039538
459.000000	0.039574
458.000000	0.039645
457.000000	0.039765
456.000000	0.039860
455.000000	0.039925
454.000000	0.040014
453.000000	0.040059
452.000000	0.040111
451.000000	0.040244
450.000000	0.040306
449.000000	0.040378
448.000000	0.040425
447.000000	0.040458
446.000000	0.040658
445.000000	0.040736
444.000000	0.040808
443.000000	0.040949
442.000000	0.041119
441.000000	0.041184
440.000000	0.041285
439.000000	0.041447
438.000000	0.041551
437.000000	0.041692
436.000000	0.041793
435.000000	0.041852
434.000000	0.041989
433.000000	0.042121
432.000000	0.042320
431.000000	0.042388
430.000000	0.042530
429.000000	0.042690
428.000000	0.042876
427.000000	0.043024
426.000000	0.043054
425.000000	0.043195
424.000000	0.043365
423.000000	0.043428
422.000000	0.043538
421.000000	0.043747
420.000000	0.043808
419.000000	0.043933
418.000000	0.044078
417.000000	0.044165
416.000000	0.044266
415.000000	0.044417
414.000000	0.044609
413.000000	0.044759
412.000000	0.044900
411.000000	0.044931
410.000000	0.045112
409.000000	0.045214
408.000000	0.045304
407.000000	0.045497
406.000000	0.045650
405.000000	0.045695
404.000000	0.045799
403.000000	0.045985
402.000000	0.046140
401.000000	0.046169
400.000000	0.046241
399.000000	0.046440
398.000000	0.046570
397.000000	0.046662
396.000000	0.046793
395.000000	0.046940
394.000000	0.046963
393.000000	0.047071
392.000000	0.047215
391.000000	0.047520
390.000000	0.047716
389.000000	0.047783
388.000000	0.047874
387.000000	0.048036
386.000000	0.048181
385.000000	0.048413
384.000000	0.048624
383.000000	0.048767
382.000000	0.048836
381.000000	0.048961
380.000000	0.049245
379.000000	0.049446
378.000000	0.049475
377.000000	0.049533
376.000000	0.049744
375.000000	0.050043
374.000000	0.050373
373.000000	0.050572
372.000000	0.050746
371.000000	0.050967
370.000000	0.051361
369.000000	0.051481
368.000000	0.051685
367.000000	0.052015
366.000000	0.052333
365.000000	0.052486
364.000000	0.052746
363.000000	0.053092
362.000000	0.053291
361.000000	0.053615
360.000000	0.053952
359.000000	0.054208
358.000000	0.054423
357.000000	0.054753
356.000000	0.055109
355.000000	0.055442
354.000000	0.055778
353.000000	0.056092
352.000000	0.056371
351.000000	0.056806
350.000000	0.057078
349.000000	0.057513
348.000000	0.057918
347.000000	0.058069
346.000000	0.058432
345.000000	0.058944
344.000000	0.059222
343.000000	0.059589
342.000000	0.060051
341.000000	0.060384
340.000000	0.060813
339.000000	0.061148
338.000000	0.061609
337.000000	0.062177
336.000000	0.062513
335.000000	0.062880
334.000000	0.063452
333.000000	0.063932
332.000000	0.064366
331.000000	0.064867
330.000000	0.065426
329.000000	0.065893
328.000000	0.066359
327.000000	0.066922
326.000000	0.067477
325.000000	0.068046
324.000000	0.068580
323.000000	0.069240
322.000000	0.069777
321.000000	0.070368
320.000000	0.070991
319.000000	0.071762
318.000000	0.071254
317.000000	0.069409
316.000000	0.070017
315.000000	0.070774
314.000000	0.071621
313.000000	0.072354
312.000000	0.072984
311.000000	0.073803
310.000000	0.074704
309.000000	0.075553
308.000000	0.076319
307.000000	0.077201
306.000000	0.078089
305.000000	0.078958
304.000000	0.079873
303.000000	0.081035
302.000000	0.082117
301.000000	0.083013
300.000000	0.084129
299.000000	0.085261
298.000000	0.086371
297.000000	0.087611
296.000000	0.088846
295.000000	0.090145
294.000000	0.091475
293.000000	0.092772
292.000000	0.094206
291.000000	0.095723
290.000000	0.097163
289.000000	0.098635
288.000000	0.100146
287.000000	0.101724
286.000000	0.103283
285.000000	0.104808
284.000000	0.106433
283.000000	0.107935
282.000000	0.109431
281.000000	0.110994
280.000000	0.112480
279.000000	0.114013
278.000000	0.115653
277.000000	0.117233
276.000000	0.118843
275.000000	0.120375
274.000000	0.121937
273.000000	0.123520
272.000000	0.125017
271.000000	0.126621
270.000000	0.128227
269.000000	0.129709
268.000000	0.131108
267.000000	0.132609
266.000000	0.134188
265.000000	0.135679
264.000000	0.137100
263.000000	0.138556
262.000000	0.139987
261.000000	0.141378
260.000000	0.142754
259.000000	0.144155
258.000000	0.145560
257.000000	0.146771
256.000000	0.148066
255.000000	0.149456
254.000000	0.150698
253.000000	0.152086
252.000000	0.153575
251.000000	0.154961
250.000000	0.156408
249.000000	0.158014
248.000000	0.159707
247.000000	0.161340
246.000000	0.163034
245.000000	0.164935
244.000000	0.167021
243.000000	0.169040
242.000000	0.171287
241.000000	0.173748
240.000000	0.176123
239.000000	0.178713
238.000000	0.181479
237.000000	0.184579
236.000000	0.187567
235.000000	0.190678
234.000000	0.194031
233.000000	0.197528
232.000000	0.201107
231.000000	0.204865
230.000000	0.208829
229.000000	0.212855
228.000000	0.217068
227.000000	0.221546
226.000000	0.226483
225.000000	0.231928
224.000000	0.237896
223.000000	0.244799
222.000000	0.252723
221.000000	0.261902
220.000000	0.272799
219.000000	0.286115
218.000000	0.301863
217.000000	0.321105
216.000000	0.345096
215.000000	0.374421
214.000000	0.409968
213.000000	0.453872
212.000000	0.507270
211.000000	0.571356
210.000000	0.647765
209.000000	0.738221
208.000000	0.845334
207.000000	0.972430
206.000000	1.123437
205.000000	1.303780
204.000000	1.521762
203.000000	1.788786
202.000000	2.121129
201.000000	2.543481
200.000000	3.115065
