PE UV       SUBTECH     SPECTRUM    ASCII       PEDS        4.00        
   -1
TV6-000.Sample.Raw.asc
11/10/14
11:38:13.00
11/10/14
11:38:13.00
Hermanni Kaartokallio

200.000000
1
Lambda 650
650N8121101
PerkinElmer UV WinLab 6.0.2.0723 / 1.61.00 Lambda 650

0
0
2
0
0
UV/VIS
1
1
1
uv/vis/nir detector
0
0
0
0
Fix
 
0
0.24
0
0
0
 
 
 
0
 
0
319.2
0
Front
100
 
 
 
0
0
0
 
0
 
 
 
0
 
 
0
0
0
0
0
 
 
 
 
0
0
#HDR
-1
-1
#GR
nm
A
1.0
0.0
800.000000
-1.000000
601
8
1.299064
0.041578
#DATA
800.000000	0.047149
799.000000	0.047126
798.000000	0.047391
797.000000	0.047431
796.000000	0.047468
795.000000	0.047459
794.000000	0.047608
793.000000	0.047649
792.000000	0.047625
791.000000	0.047732
790.000000	0.047881
789.000000	0.048017
788.000000	0.048089
787.000000	0.048087
786.000000	0.048072
785.000000	0.048274
784.000000	0.048343
783.000000	0.048474
782.000000	0.048604
781.000000	0.048640
780.000000	0.048597
779.000000	0.048712
778.000000	0.048809
777.000000	0.048878
776.000000	0.048910
775.000000	0.048922
774.000000	0.048991
773.000000	0.048958
772.000000	0.049104
771.000000	0.049062
770.000000	0.049100
769.000000	0.049137
768.000000	0.049178
767.000000	0.049297
766.000000	0.049347
765.000000	0.049393
764.000000	0.049452
763.000000	0.049389
762.000000	0.049406
761.000000	0.049512
760.000000	0.049636
759.000000	0.049595
758.000000	0.049698
757.000000	0.049776
756.000000	0.049770
755.000000	0.049771
754.000000	0.049862
753.000000	0.049930
752.000000	0.049945
751.000000	0.049856
750.000000	0.049850
749.000000	0.049931
748.000000	0.049894
747.000000	0.049893
746.000000	0.049900
745.000000	0.049825
744.000000	0.049851
743.000000	0.049884
742.000000	0.049912
741.000000	0.049851
740.000000	0.049730
739.000000	0.049663
738.000000	0.049576
737.000000	0.049421
736.000000	0.049191
735.000000	0.048881
734.000000	0.048547
733.000000	0.048119
732.000000	0.047652
731.000000	0.047251
730.000000	0.046732
729.000000	0.046282
728.000000	0.045961
727.000000	0.045573
726.000000	0.045173
725.000000	0.044959
724.000000	0.044856
723.000000	0.044635
722.000000	0.044368
721.000000	0.044130
720.000000	0.043985
719.000000	0.043844
718.000000	0.043654
717.000000	0.043509
716.000000	0.043363
715.000000	0.043190
714.000000	0.043060
713.000000	0.042932
712.000000	0.042766
711.000000	0.042623
710.000000	0.042556
709.000000	0.042419
708.000000	0.042258
707.000000	0.042264
706.000000	0.042219
705.000000	0.042100
704.000000	0.042068
703.000000	0.041988
702.000000	0.041912
701.000000	0.041930
700.000000	0.041917
699.000000	0.041885
698.000000	0.041854
697.000000	0.041730
696.000000	0.041710
695.000000	0.041798
694.000000	0.041781
693.000000	0.041733
692.000000	0.041728
691.000000	0.041659
690.000000	0.041578
689.000000	0.041683
688.000000	0.041723
687.000000	0.041626
686.000000	0.041581
685.000000	0.041653
684.000000	0.041727
683.000000	0.041715
682.000000	0.041656
681.000000	0.041682
680.000000	0.041710
679.000000	0.041741
678.000000	0.041824
677.000000	0.041838
676.000000	0.041834
675.000000	0.041822
674.000000	0.041868
673.000000	0.041932
672.000000	0.041962
671.000000	0.042000
670.000000	0.042133
669.000000	0.042129
668.000000	0.042115
667.000000	0.042200
666.000000	0.042238
665.000000	0.042249
664.000000	0.042295
663.000000	0.042352
662.000000	0.042369
661.000000	0.042401
660.000000	0.042450
659.000000	0.042488
658.000000	0.042429
657.000000	0.042503
656.000000	0.042615
655.000000	0.042661
654.000000	0.042703
653.000000	0.042681
652.000000	0.042710
651.000000	0.042791
650.000000	0.042784
649.000000	0.042892
648.000000	0.042927
647.000000	0.042955
646.000000	0.043008
645.000000	0.043086
644.000000	0.043124
643.000000	0.043146
642.000000	0.043212
641.000000	0.043301
640.000000	0.043324
639.000000	0.043364
638.000000	0.043450
637.000000	0.043486
636.000000	0.043511
635.000000	0.043596
634.000000	0.043628
633.000000	0.043684
632.000000	0.043709
631.000000	0.043838
630.000000	0.043884
629.000000	0.043958
628.000000	0.043925
627.000000	0.044042
626.000000	0.044106
625.000000	0.044291
624.000000	0.044197
623.000000	0.044318
622.000000	0.044302
621.000000	0.044347
620.000000	0.044499
619.000000	0.044606
618.000000	0.044676
617.000000	0.044705
616.000000	0.044797
615.000000	0.044829
614.000000	0.044894
613.000000	0.044964
612.000000	0.045127
611.000000	0.045134
610.000000	0.045155
609.000000	0.045286
608.000000	0.045550
607.000000	0.045444
606.000000	0.045612
605.000000	0.045694
604.000000	0.045729
603.000000	0.045781
602.000000	0.045833
601.000000	0.045949
600.000000	0.046001
599.000000	0.045976
598.000000	0.045999
597.000000	0.046152
596.000000	0.046132
595.000000	0.046303
594.000000	0.046333
593.000000	0.046331
592.000000	0.046431
591.000000	0.046421
590.000000	0.046580
589.000000	0.046571
588.000000	0.046651
587.000000	0.046799
586.000000	0.046745
585.000000	0.046816
584.000000	0.046866
583.000000	0.047018
582.000000	0.047004
581.000000	0.047130
580.000000	0.047085
579.000000	0.047272
578.000000	0.047295
577.000000	0.047356
576.000000	0.047470
575.000000	0.047533
574.000000	0.047562
573.000000	0.047654
572.000000	0.047747
571.000000	0.047830
570.000000	0.047890
569.000000	0.048002
568.000000	0.048085
567.000000	0.048070
566.000000	0.048161
565.000000	0.048289
564.000000	0.048421
563.000000	0.048433
562.000000	0.048602
561.000000	0.048560
560.000000	0.048521
559.000000	0.048741
558.000000	0.048921
557.000000	0.048929
556.000000	0.049014
555.000000	0.049062
554.000000	0.049205
553.000000	0.049309
552.000000	0.049313
551.000000	0.049504
550.000000	0.049539
549.000000	0.049621
548.000000	0.049701
547.000000	0.049899
546.000000	0.049886
545.000000	0.049996
544.000000	0.050145
543.000000	0.050260
542.000000	0.050289
541.000000	0.050393
540.000000	0.050575
539.000000	0.050676
538.000000	0.050781
537.000000	0.050978
536.000000	0.051058
535.000000	0.051176
534.000000	0.051277
533.000000	0.051491
532.000000	0.051567
531.000000	0.051685
530.000000	0.051827
529.000000	0.052083
528.000000	0.052180
527.000000	0.052296
526.000000	0.052477
525.000000	0.052573
524.000000	0.052645
523.000000	0.052857
522.000000	0.053084
521.000000	0.053232
520.000000	0.053362
519.000000	0.053477
518.000000	0.053669
517.000000	0.053853
516.000000	0.054008
515.000000	0.054239
514.000000	0.054421
513.000000	0.054544
512.000000	0.054654
511.000000	0.054855
510.000000	0.055064
509.000000	0.055223
508.000000	0.055361
507.000000	0.055515
506.000000	0.055658
505.000000	0.055825
504.000000	0.055996
503.000000	0.056145
502.000000	0.056255
501.000000	0.056415
500.000000	0.056554
499.000000	0.056730
498.000000	0.056834
497.000000	0.056982
496.000000	0.057250
495.000000	0.057375
494.000000	0.057548
493.000000	0.057827
492.000000	0.057988
491.000000	0.058141
490.000000	0.058333
489.000000	0.058494
488.000000	0.058583
487.000000	0.058794
486.000000	0.059010
485.000000	0.059175
484.000000	0.059369
483.000000	0.059550
482.000000	0.059777
481.000000	0.059887
480.000000	0.060086
479.000000	0.060391
478.000000	0.060553
477.000000	0.060726
476.000000	0.060995
475.000000	0.061288
474.000000	0.061496
473.000000	0.061635
472.000000	0.061875
471.000000	0.062125
470.000000	0.062342
469.000000	0.062597
468.000000	0.062908
467.000000	0.063184
466.000000	0.063368
465.000000	0.063570
464.000000	0.063882
463.000000	0.064208
462.000000	0.064502
461.000000	0.064852
460.000000	0.065203
459.000000	0.065440
458.000000	0.065742
457.000000	0.066080
456.000000	0.066380
455.000000	0.066663
454.000000	0.067027
453.000000	0.067357
452.000000	0.067704
451.000000	0.068069
450.000000	0.068446
449.000000	0.068825
448.000000	0.069143
447.000000	0.069428
446.000000	0.069889
445.000000	0.070326
444.000000	0.070669
443.000000	0.071106
442.000000	0.071618
441.000000	0.072001
440.000000	0.072455
439.000000	0.072948
438.000000	0.073383
437.000000	0.073822
436.000000	0.074264
435.000000	0.074761
434.000000	0.075280
433.000000	0.075738
432.000000	0.076287
431.000000	0.076739
430.000000	0.077232
429.000000	0.077707
428.000000	0.078268
427.000000	0.078905
426.000000	0.079403
425.000000	0.079914
424.000000	0.080586
423.000000	0.081026
422.000000	0.081471
421.000000	0.082117
420.000000	0.082723
419.000000	0.083212
418.000000	0.083850
417.000000	0.084390
416.000000	0.085000
415.000000	0.085608
414.000000	0.086328
413.000000	0.086906
412.000000	0.087492
411.000000	0.088070
410.000000	0.088822
409.000000	0.089477
408.000000	0.090060
407.000000	0.090746
406.000000	0.091497
405.000000	0.092139
404.000000	0.092794
403.000000	0.093555
402.000000	0.094288
401.000000	0.094994
400.000000	0.095696
399.000000	0.096451
398.000000	0.097356
397.000000	0.098013
396.000000	0.098812
395.000000	0.099666
394.000000	0.100505
393.000000	0.101196
392.000000	0.102052
391.000000	0.103152
390.000000	0.104106
389.000000	0.104930
388.000000	0.105808
387.000000	0.106803
386.000000	0.107688
385.000000	0.108739
384.000000	0.109764
383.000000	0.110780
382.000000	0.111739
381.000000	0.112727
380.000000	0.113969
379.000000	0.115122
378.000000	0.116115
377.000000	0.117255
376.000000	0.118450
375.000000	0.119536
374.000000	0.120887
373.000000	0.122060
372.000000	0.123249
371.000000	0.124562
370.000000	0.125971
369.000000	0.127240
368.000000	0.128357
367.000000	0.129757
366.000000	0.131205
365.000000	0.132430
364.000000	0.133888
363.000000	0.135295
362.000000	0.136646
361.000000	0.138192
360.000000	0.139669
359.000000	0.141091
358.000000	0.142524
357.000000	0.144010
356.000000	0.145637
355.000000	0.147281
354.000000	0.148808
353.000000	0.150411
352.000000	0.152016
351.000000	0.153801
350.000000	0.155424
349.000000	0.157224
348.000000	0.158959
347.000000	0.160498
346.000000	0.162275
345.000000	0.164253
344.000000	0.166016
343.000000	0.167788
342.000000	0.169753
341.000000	0.171666
340.000000	0.173598
339.000000	0.175444
338.000000	0.177483
337.000000	0.179565
336.000000	0.181583
335.000000	0.183595
334.000000	0.185918
333.000000	0.187961
332.000000	0.190097
331.000000	0.192370
330.000000	0.194610
329.000000	0.196743
328.000000	0.199043
327.000000	0.201507
326.000000	0.203851
325.000000	0.206233
324.000000	0.208640
323.000000	0.211121
322.000000	0.213654
321.000000	0.216209
320.000000	0.218786
319.000000	0.221441
318.000000	0.223260
317.000000	0.224206
316.000000	0.226855
315.000000	0.229610
314.000000	0.232615
313.000000	0.235612
312.000000	0.238328
311.000000	0.241303
310.000000	0.244455
309.000000	0.247499
308.000000	0.250584
307.000000	0.253803
306.000000	0.257167
305.000000	0.260500
304.000000	0.263784
303.000000	0.267433
302.000000	0.271058
301.000000	0.274530
300.000000	0.278196
299.000000	0.282114
298.000000	0.285966
297.000000	0.289925
296.000000	0.293976
295.000000	0.298180
294.000000	0.302514
293.000000	0.306833
292.000000	0.311265
291.000000	0.315857
290.000000	0.320388
289.000000	0.325020
288.000000	0.329725
287.000000	0.334357
286.000000	0.338969
285.000000	0.343640
284.000000	0.348274
283.000000	0.352675
282.000000	0.357022
281.000000	0.361427
280.000000	0.365801
279.000000	0.370132
278.000000	0.374495
277.000000	0.378831
276.000000	0.383161
275.000000	0.387427
274.000000	0.391655
273.000000	0.395909
272.000000	0.400110
271.000000	0.404312
270.000000	0.408550
269.000000	0.412648
268.000000	0.416632
267.000000	0.420627
266.000000	0.424672
265.000000	0.428621
264.000000	0.432489
263.000000	0.436307
262.000000	0.440091
261.000000	0.443896
260.000000	0.447594
259.000000	0.451247
258.000000	0.454968
257.000000	0.458588
256.000000	0.462300
255.000000	0.466102
254.000000	0.469851
253.000000	0.473781
252.000000	0.477946
251.000000	0.482173
250.000000	0.486626
249.000000	0.491287
248.000000	0.496281
247.000000	0.501528
246.000000	0.507089
245.000000	0.512872
244.000000	0.519043
243.000000	0.525569
242.000000	0.532518
241.000000	0.539862
240.000000	0.547489
239.000000	0.555322
238.000000	0.563658
237.000000	0.572385
236.000000	0.581506
235.000000	0.591092
234.000000	0.601331
233.000000	0.611892
232.000000	0.622999
231.000000	0.634667
230.000000	0.647025
229.000000	0.659696
228.000000	0.673110
227.000000	0.687277
226.000000	0.702424
225.000000	0.718431
224.000000	0.735547
223.000000	0.753654
222.000000	0.772743
221.000000	0.792851
220.000000	0.814057
219.000000	0.836250
218.000000	0.859251
217.000000	0.883295
216.000000	0.908135
215.000000	0.933590
214.000000	0.959604
213.000000	0.986035
212.000000	1.012675
211.000000	1.039152
210.000000	1.065562
209.000000	1.091707
208.000000	1.117543
207.000000	1.142513
206.000000	1.166674
205.000000	1.190619
204.000000	1.213476
203.000000	1.235522
202.000000	1.257339
201.000000	1.278316
200.000000	1.299064
