PE UV       SUBTECH     SPECTRUM    ASCII       PEDS        4.00        
   -1
TV6-05A.Sample.Raw.asc
11/10/14
13:22:24.00
11/10/14
13:22:24.00
Hermanni Kaartokallio

200.000000
1
Lambda 650
650N8121101
PerkinElmer UV WinLab 6.0.2.0723 / 1.61.00 Lambda 650

0
0
2
0
0
UV/VIS
1
1
1
uv/vis/nir detector
0
0
0
0
Fix
 
0
0.24
0
0
0
 
 
 
0
 
0
319.2
0
Front
100
 
 
 
0
0
0
 
0
 
 
 
0
 
 
0
0
0
0
0
 
 
 
 
0
0
#HDR
-1
-1
#GR
nm
A
1.0
0.0
800.000000
-1.000000
601
8
3.154019
0.035690
#DATA
800.000000	0.043292
799.000000	0.043391
798.000000	0.043482
797.000000	0.043631
796.000000	0.043604
795.000000	0.043588
794.000000	0.043705
793.000000	0.043770
792.000000	0.043907
791.000000	0.043907
790.000000	0.043891
789.000000	0.044320
788.000000	0.044272
787.000000	0.044178
786.000000	0.044196
785.000000	0.044433
784.000000	0.044578
783.000000	0.044474
782.000000	0.044602
781.000000	0.044739
780.000000	0.044752
779.000000	0.044711
778.000000	0.044938
777.000000	0.045078
776.000000	0.044937
775.000000	0.044912
774.000000	0.045109
773.000000	0.044956
772.000000	0.045002
771.000000	0.045046
770.000000	0.045172
769.000000	0.045087
768.000000	0.045119
767.000000	0.045243
766.000000	0.045285
765.000000	0.045202
764.000000	0.045284
763.000000	0.045345
762.000000	0.045294
761.000000	0.045304
760.000000	0.045415
759.000000	0.045471
758.000000	0.045473
757.000000	0.045429
756.000000	0.045618
755.000000	0.045524
754.000000	0.045556
753.000000	0.045641
752.000000	0.045733
751.000000	0.045640
750.000000	0.045603
749.000000	0.045631
748.000000	0.045689
747.000000	0.045594
746.000000	0.045533
745.000000	0.045649
744.000000	0.045651
743.000000	0.045561
742.000000	0.045632
741.000000	0.045645
740.000000	0.045436
739.000000	0.045292
738.000000	0.045213
737.000000	0.045067
736.000000	0.044772
735.000000	0.044411
734.000000	0.044105
733.000000	0.043654
732.000000	0.043035
731.000000	0.042623
730.000000	0.042189
729.000000	0.041727
728.000000	0.041301
727.000000	0.040938
726.000000	0.040567
725.000000	0.040242
724.000000	0.040067
723.000000	0.039888
722.000000	0.039583
721.000000	0.039336
720.000000	0.039201
719.000000	0.039054
718.000000	0.038762
717.000000	0.038589
716.000000	0.038498
715.000000	0.038258
714.000000	0.038025
713.000000	0.037887
712.000000	0.037763
711.000000	0.037521
710.000000	0.037314
709.000000	0.037193
708.000000	0.037064
707.000000	0.036979
706.000000	0.036925
705.000000	0.036857
704.000000	0.036715
703.000000	0.036496
702.000000	0.036408
701.000000	0.036435
700.000000	0.036376
699.000000	0.036308
698.000000	0.036293
697.000000	0.036153
696.000000	0.036023
695.000000	0.036033
694.000000	0.036024
693.000000	0.035970
692.000000	0.035942
691.000000	0.035915
690.000000	0.035817
689.000000	0.035797
688.000000	0.035842
687.000000	0.035788
686.000000	0.035701
685.000000	0.035690
684.000000	0.035772
683.000000	0.035782
682.000000	0.035707
681.000000	0.035703
680.000000	0.035755
679.000000	0.035780
678.000000	0.035803
677.000000	0.035781
676.000000	0.035792
675.000000	0.035769
674.000000	0.035705
673.000000	0.035773
672.000000	0.035797
671.000000	0.035785
670.000000	0.035897
669.000000	0.035891
668.000000	0.035866
667.000000	0.035933
666.000000	0.035954
665.000000	0.035949
664.000000	0.035936
663.000000	0.035952
662.000000	0.036034
661.000000	0.035994
660.000000	0.035914
659.000000	0.035984
658.000000	0.035915
657.000000	0.035854
656.000000	0.035826
655.000000	0.035929
654.000000	0.035932
653.000000	0.035835
652.000000	0.035872
651.000000	0.035969
650.000000	0.035938
649.000000	0.035942
648.000000	0.035971
647.000000	0.036019
646.000000	0.035998
645.000000	0.035975
644.000000	0.036036
643.000000	0.036092
642.000000	0.036061
641.000000	0.036088
640.000000	0.036148
639.000000	0.036081
638.000000	0.036118
637.000000	0.036148
636.000000	0.036122
635.000000	0.036049
634.000000	0.036040
633.000000	0.036077
632.000000	0.036153
631.000000	0.036139
630.000000	0.036172
629.000000	0.036205
628.000000	0.036140
627.000000	0.036162
626.000000	0.036181
625.000000	0.036278
624.000000	0.036251
623.000000	0.036261
622.000000	0.036372
621.000000	0.036328
620.000000	0.036326
619.000000	0.036366
618.000000	0.036504
617.000000	0.036446
616.000000	0.036478
615.000000	0.036469
614.000000	0.036488
613.000000	0.036463
612.000000	0.036609
611.000000	0.036707
610.000000	0.036652
609.000000	0.036608
608.000000	0.036722
607.000000	0.036841
606.000000	0.036861
605.000000	0.036788
604.000000	0.036921
603.000000	0.036872
602.000000	0.036895
601.000000	0.036985
600.000000	0.036986
599.000000	0.036978
598.000000	0.036846
597.000000	0.036968
596.000000	0.036987
595.000000	0.036990
594.000000	0.036990
593.000000	0.037063
592.000000	0.037063
591.000000	0.036975
590.000000	0.036957
589.000000	0.037129
588.000000	0.037121
587.000000	0.037037
586.000000	0.037120
585.000000	0.037134
584.000000	0.037080
583.000000	0.037146
582.000000	0.037173
581.000000	0.037237
580.000000	0.037094
579.000000	0.037127
578.000000	0.037247
577.000000	0.037203
576.000000	0.037165
575.000000	0.037202
574.000000	0.037257
573.000000	0.037214
572.000000	0.037205
571.000000	0.037283
570.000000	0.037316
569.000000	0.037284
568.000000	0.037321
567.000000	0.037324
566.000000	0.037271
565.000000	0.037308
564.000000	0.037337
563.000000	0.037361
562.000000	0.037333
561.000000	0.037192
560.000000	0.037146
559.000000	0.037209
558.000000	0.037269
557.000000	0.037280
556.000000	0.037253
555.000000	0.037223
554.000000	0.037295
553.000000	0.037290
552.000000	0.037209
551.000000	0.037224
550.000000	0.037241
549.000000	0.037231
548.000000	0.037222
547.000000	0.037216
546.000000	0.037268
545.000000	0.037236
544.000000	0.037234
543.000000	0.037250
542.000000	0.037248
541.000000	0.037183
540.000000	0.037274
539.000000	0.037306
538.000000	0.037345
537.000000	0.037407
536.000000	0.037379
535.000000	0.037495
534.000000	0.037465
533.000000	0.037469
532.000000	0.037531
531.000000	0.037588
530.000000	0.037591
529.000000	0.037637
528.000000	0.037676
527.000000	0.037752
526.000000	0.037743
525.000000	0.037767
524.000000	0.037875
523.000000	0.037919
522.000000	0.037933
521.000000	0.038043
520.000000	0.038088
519.000000	0.038094
518.000000	0.038117
517.000000	0.038234
516.000000	0.038289
515.000000	0.038289
514.000000	0.038393
513.000000	0.038496
512.000000	0.038455
511.000000	0.038486
510.000000	0.038640
509.000000	0.038678
508.000000	0.038644
507.000000	0.038715
506.000000	0.038852
505.000000	0.038869
504.000000	0.038846
503.000000	0.038885
502.000000	0.038905
501.000000	0.038942
500.000000	0.038932
499.000000	0.038982
498.000000	0.038930
497.000000	0.038876
496.000000	0.039055
495.000000	0.039128
494.000000	0.039127
493.000000	0.039133
492.000000	0.039157
491.000000	0.039238
490.000000	0.039242
489.000000	0.039224
488.000000	0.039222
487.000000	0.039275
486.000000	0.039293
485.000000	0.039295
484.000000	0.039359
483.000000	0.039357
482.000000	0.039329
481.000000	0.039378
480.000000	0.039478
479.000000	0.039489
478.000000	0.039452
477.000000	0.039497
476.000000	0.039529
475.000000	0.039575
474.000000	0.039660
473.000000	0.039678
472.000000	0.039702
471.000000	0.039657
470.000000	0.039735
469.000000	0.039855
468.000000	0.039892
467.000000	0.039912
466.000000	0.039963
465.000000	0.039990
464.000000	0.040058
463.000000	0.040142
462.000000	0.040261
461.000000	0.040312
460.000000	0.040381
459.000000	0.040452
458.000000	0.040482
457.000000	0.040555
456.000000	0.040643
455.000000	0.040738
454.000000	0.040824
453.000000	0.040866
452.000000	0.040896
451.000000	0.041052
450.000000	0.041128
449.000000	0.041203
448.000000	0.041330
447.000000	0.041337
446.000000	0.041435
445.000000	0.041537
444.000000	0.041645
443.000000	0.041762
442.000000	0.041890
441.000000	0.041988
440.000000	0.042112
439.000000	0.042167
438.000000	0.042287
437.000000	0.042525
436.000000	0.042595
435.000000	0.042623
434.000000	0.042757
433.000000	0.042951
432.000000	0.043074
431.000000	0.043136
430.000000	0.043321
429.000000	0.043451
428.000000	0.043525
427.000000	0.043768
426.000000	0.043844
425.000000	0.043996
424.000000	0.044131
423.000000	0.044282
422.000000	0.044373
421.000000	0.044507
420.000000	0.044631
419.000000	0.044778
418.000000	0.044903
417.000000	0.044986
416.000000	0.045057
415.000000	0.045254
414.000000	0.045473
413.000000	0.045533
412.000000	0.045639
411.000000	0.045652
410.000000	0.045866
409.000000	0.046021
408.000000	0.046159
407.000000	0.046272
406.000000	0.046386
405.000000	0.046436
404.000000	0.046551
403.000000	0.046809
402.000000	0.046895
401.000000	0.046935
400.000000	0.047086
399.000000	0.047218
398.000000	0.047362
397.000000	0.047427
396.000000	0.047606
395.000000	0.047725
394.000000	0.047858
393.000000	0.048051
392.000000	0.047993
391.000000	0.048245
390.000000	0.048399
389.000000	0.048546
388.000000	0.048686
387.000000	0.048841
386.000000	0.049027
385.000000	0.049260
384.000000	0.049367
383.000000	0.049524
382.000000	0.049627
381.000000	0.049795
380.000000	0.050059
379.000000	0.050310
378.000000	0.050180
377.000000	0.050317
376.000000	0.050449
375.000000	0.050800
374.000000	0.051047
373.000000	0.051242
372.000000	0.051414
371.000000	0.051668
370.000000	0.051990
369.000000	0.052150
368.000000	0.052429
367.000000	0.052746
366.000000	0.052980
365.000000	0.053139
364.000000	0.053475
363.000000	0.053760
362.000000	0.053925
361.000000	0.054341
360.000000	0.054671
359.000000	0.054856
358.000000	0.055149
357.000000	0.055430
356.000000	0.055739
355.000000	0.056095
354.000000	0.056432
353.000000	0.056789
352.000000	0.057086
351.000000	0.057468
350.000000	0.057659
349.000000	0.058160
348.000000	0.058533
347.000000	0.058762
346.000000	0.059030
345.000000	0.059586
344.000000	0.059858
343.000000	0.060216
342.000000	0.060533
341.000000	0.060967
340.000000	0.061402
339.000000	0.061771
338.000000	0.062226
337.000000	0.062684
336.000000	0.063062
335.000000	0.063389
334.000000	0.064030
333.000000	0.064432
332.000000	0.064897
331.000000	0.065336
330.000000	0.065904
329.000000	0.066330
328.000000	0.066831
327.000000	0.067433
326.000000	0.067941
325.000000	0.068445
324.000000	0.069187
323.000000	0.069666
322.000000	0.070168
321.000000	0.070740
320.000000	0.071395
319.000000	0.072114
318.000000	0.071654
317.000000	0.069915
316.000000	0.070576
315.000000	0.071159
314.000000	0.072039
313.000000	0.072749
312.000000	0.073388
311.000000	0.074202
310.000000	0.075095
309.000000	0.075867
308.000000	0.076625
307.000000	0.077533
306.000000	0.078368
305.000000	0.079226
304.000000	0.080203
303.000000	0.081296
302.000000	0.082293
301.000000	0.083209
300.000000	0.084334
299.000000	0.085488
298.000000	0.086526
297.000000	0.087692
296.000000	0.088898
295.000000	0.090119
294.000000	0.091441
293.000000	0.092764
292.000000	0.094129
291.000000	0.095589
290.000000	0.097030
289.000000	0.098439
288.000000	0.099893
287.000000	0.101410
286.000000	0.102923
285.000000	0.104493
284.000000	0.106008
283.000000	0.107420
282.000000	0.108974
281.000000	0.110581
280.000000	0.112037
279.000000	0.113545
278.000000	0.115186
277.000000	0.116756
276.000000	0.118236
275.000000	0.119739
274.000000	0.121337
273.000000	0.122903
272.000000	0.124345
271.000000	0.125878
270.000000	0.127478
269.000000	0.128946
268.000000	0.130360
267.000000	0.131924
266.000000	0.133459
265.000000	0.134862
264.000000	0.136254
263.000000	0.137700
262.000000	0.139127
261.000000	0.140496
260.000000	0.141829
259.000000	0.143213
258.000000	0.144586
257.000000	0.145922
256.000000	0.147244
255.000000	0.148542
254.000000	0.149833
253.000000	0.151225
252.000000	0.152612
251.000000	0.153909
250.000000	0.155387
249.000000	0.157036
248.000000	0.158680
247.000000	0.160322
246.000000	0.162098
245.000000	0.163970
244.000000	0.165959
243.000000	0.168012
242.000000	0.170286
241.000000	0.172701
240.000000	0.175191
239.000000	0.177828
238.000000	0.180520
237.000000	0.183603
236.000000	0.186723
235.000000	0.189844
234.000000	0.193286
233.000000	0.196884
232.000000	0.200522
231.000000	0.204363
230.000000	0.208465
229.000000	0.212550
228.000000	0.216910
227.000000	0.221622
226.000000	0.226618
225.000000	0.232197
224.000000	0.238306
223.000000	0.245388
222.000000	0.253437
221.000000	0.262765
220.000000	0.273985
219.000000	0.287483
218.000000	0.303541
217.000000	0.323133
216.000000	0.347513
215.000000	0.377241
214.000000	0.413150
213.000000	0.457597
212.000000	0.511534
211.000000	0.576331
210.000000	0.653402
209.000000	0.745033
208.000000	0.853257
207.000000	0.981273
206.000000	1.133583
205.000000	1.315939
204.000000	1.535702
203.000000	1.805989
202.000000	2.142119
201.000000	2.570957
200.000000	3.154019
