PE UV       SUBTECH     SPECTRUM    ASCII       PEDS        4.00        
   -1
TV6-01A.Sample.Raw.asc
11/10/14
11:42:31.00
11/10/14
11:42:31.00
Hermanni Kaartokallio

200.000000
1
Lambda 650
650N8121101
PerkinElmer UV WinLab 6.0.2.0723 / 1.61.00 Lambda 650

0
0
2
0
0
UV/VIS
1
1
1
uv/vis/nir detector
0
0
0
0
Fix
 
0
0.24
0
0
0
 
 
 
0
 
0
319.2
0
Front
100
 
 
 
0
0
0
 
0
 
 
 
0
 
 
0
0
0
0
0
 
 
 
 
0
0
#HDR
-1
-1
#GR
nm
A
1.0
0.0
800.000000
-1.000000
601
8
1.582355
0.035890
#DATA
800.000000	0.043429
799.000000	0.043492
798.000000	0.043659
797.000000	0.043548
796.000000	0.043861
795.000000	0.043916
794.000000	0.044014
793.000000	0.044057
792.000000	0.044078
791.000000	0.044180
790.000000	0.044097
789.000000	0.044394
788.000000	0.044483
787.000000	0.044475
786.000000	0.044377
785.000000	0.044731
784.000000	0.044766
783.000000	0.044708
782.000000	0.044763
781.000000	0.044999
780.000000	0.044895
779.000000	0.044976
778.000000	0.045077
777.000000	0.045173
776.000000	0.045107
775.000000	0.045038
774.000000	0.045129
773.000000	0.045096
772.000000	0.045074
771.000000	0.045192
770.000000	0.045275
769.000000	0.045275
768.000000	0.045191
767.000000	0.045278
766.000000	0.045372
765.000000	0.045267
764.000000	0.045309
763.000000	0.045474
762.000000	0.045582
761.000000	0.045416
760.000000	0.045493
759.000000	0.045533
758.000000	0.045589
757.000000	0.045554
756.000000	0.045622
755.000000	0.045669
754.000000	0.045700
753.000000	0.045670
752.000000	0.045802
751.000000	0.045723
750.000000	0.045640
749.000000	0.045696
748.000000	0.045706
747.000000	0.045587
746.000000	0.045616
745.000000	0.045685
744.000000	0.045668
743.000000	0.045634
742.000000	0.045631
741.000000	0.045662
740.000000	0.045477
739.000000	0.045271
738.000000	0.045221
737.000000	0.045114
736.000000	0.044808
735.000000	0.044405
734.000000	0.044122
733.000000	0.043651
732.000000	0.043058
731.000000	0.042676
730.000000	0.042239
729.000000	0.041816
728.000000	0.041350
727.000000	0.040951
726.000000	0.040564
725.000000	0.040285
724.000000	0.040130
723.000000	0.039962
722.000000	0.039716
721.000000	0.039388
720.000000	0.039208
719.000000	0.039025
718.000000	0.038833
717.000000	0.038656
716.000000	0.038511
715.000000	0.038304
714.000000	0.038049
713.000000	0.037933
712.000000	0.037844
711.000000	0.037592
710.000000	0.037405
709.000000	0.037290
708.000000	0.037169
707.000000	0.037092
706.000000	0.037000
705.000000	0.036897
704.000000	0.036822
703.000000	0.036615
702.000000	0.036541
701.000000	0.036594
700.000000	0.036525
699.000000	0.036464
698.000000	0.036404
697.000000	0.036278
696.000000	0.036192
695.000000	0.036218
694.000000	0.036221
693.000000	0.036151
692.000000	0.036106
691.000000	0.036072
690.000000	0.036021
689.000000	0.036032
688.000000	0.036053
687.000000	0.035990
686.000000	0.035926
685.000000	0.035943
684.000000	0.035987
683.000000	0.035988
682.000000	0.035909
681.000000	0.035935
680.000000	0.035974
679.000000	0.035946
678.000000	0.035962
677.000000	0.035976
676.000000	0.035949
675.000000	0.035890
674.000000	0.035905
673.000000	0.036015
672.000000	0.036041
671.000000	0.035982
670.000000	0.036083
669.000000	0.036085
668.000000	0.036067
667.000000	0.036075
666.000000	0.036156
665.000000	0.036214
664.000000	0.036164
663.000000	0.036151
662.000000	0.036262
661.000000	0.036285
660.000000	0.036200
659.000000	0.036265
658.000000	0.036225
657.000000	0.036183
656.000000	0.036164
655.000000	0.036226
654.000000	0.036243
653.000000	0.036192
652.000000	0.036214
651.000000	0.036298
650.000000	0.036273
649.000000	0.036247
648.000000	0.036315
647.000000	0.036379
646.000000	0.036295
645.000000	0.036330
644.000000	0.036365
643.000000	0.036432
642.000000	0.036434
641.000000	0.036454
640.000000	0.036464
639.000000	0.036432
638.000000	0.036432
637.000000	0.036536
636.000000	0.036585
635.000000	0.036545
634.000000	0.036448
633.000000	0.036572
632.000000	0.036614
631.000000	0.036584
630.000000	0.036626
629.000000	0.036665
628.000000	0.036630
627.000000	0.036686
626.000000	0.036687
625.000000	0.036773
624.000000	0.036709
623.000000	0.036774
622.000000	0.036791
621.000000	0.036827
620.000000	0.036781
619.000000	0.036876
618.000000	0.036982
617.000000	0.036991
616.000000	0.036978
615.000000	0.037022
614.000000	0.037106
613.000000	0.037016
612.000000	0.037175
611.000000	0.037208
610.000000	0.037177
609.000000	0.037165
608.000000	0.037282
607.000000	0.037428
606.000000	0.037464
605.000000	0.037411
604.000000	0.037554
603.000000	0.037605
602.000000	0.037507
601.000000	0.037650
600.000000	0.037731
599.000000	0.037662
598.000000	0.037493
597.000000	0.037766
596.000000	0.037736
595.000000	0.037688
594.000000	0.037659
593.000000	0.037753
592.000000	0.037820
591.000000	0.037654
590.000000	0.037766
589.000000	0.037823
588.000000	0.037852
587.000000	0.037842
586.000000	0.037875
585.000000	0.037879
584.000000	0.037926
583.000000	0.037913
582.000000	0.037984
581.000000	0.037992
580.000000	0.037936
579.000000	0.038009
578.000000	0.038043
577.000000	0.038050
576.000000	0.037965
575.000000	0.038111
574.000000	0.038127
573.000000	0.038063
572.000000	0.038083
571.000000	0.038165
570.000000	0.038167
569.000000	0.038204
568.000000	0.038231
567.000000	0.038284
566.000000	0.038237
565.000000	0.038256
564.000000	0.038377
563.000000	0.038361
562.000000	0.038328
561.000000	0.038366
560.000000	0.038307
559.000000	0.038324
558.000000	0.038434
557.000000	0.038492
556.000000	0.038539
555.000000	0.038416
554.000000	0.038539
553.000000	0.038560
552.000000	0.038464
551.000000	0.038489
550.000000	0.038525
549.000000	0.038563
548.000000	0.038471
547.000000	0.038616
546.000000	0.038686
545.000000	0.038674
544.000000	0.038731
543.000000	0.038769
542.000000	0.038736
541.000000	0.038712
540.000000	0.038800
539.000000	0.038887
538.000000	0.038936
537.000000	0.038982
536.000000	0.038993
535.000000	0.039089
534.000000	0.039049
533.000000	0.039095
532.000000	0.039221
531.000000	0.039199
530.000000	0.039192
529.000000	0.039374
528.000000	0.039487
527.000000	0.039523
526.000000	0.039514
525.000000	0.039557
524.000000	0.039670
523.000000	0.039759
522.000000	0.039811
521.000000	0.039961
520.000000	0.040027
519.000000	0.040011
518.000000	0.040090
517.000000	0.040270
516.000000	0.040258
515.000000	0.040350
514.000000	0.040460
513.000000	0.040559
512.000000	0.040578
511.000000	0.040675
510.000000	0.040813
509.000000	0.040864
508.000000	0.040840
507.000000	0.040935
506.000000	0.041053
505.000000	0.041135
504.000000	0.041155
503.000000	0.041220
502.000000	0.041290
501.000000	0.041307
500.000000	0.041323
499.000000	0.041435
498.000000	0.041425
497.000000	0.041417
496.000000	0.041589
495.000000	0.041676
494.000000	0.041733
493.000000	0.041777
492.000000	0.041874
491.000000	0.042010
490.000000	0.042016
489.000000	0.042046
488.000000	0.042113
487.000000	0.042191
486.000000	0.042243
485.000000	0.042302
484.000000	0.042373
483.000000	0.042394
482.000000	0.042502
481.000000	0.042597
480.000000	0.042674
479.000000	0.042726
478.000000	0.042767
477.000000	0.042882
476.000000	0.042949
475.000000	0.043011
474.000000	0.043209
473.000000	0.043320
472.000000	0.043366
471.000000	0.043402
470.000000	0.043470
469.000000	0.043578
468.000000	0.043692
467.000000	0.043852
466.000000	0.044009
465.000000	0.044025
464.000000	0.044116
463.000000	0.044349
462.000000	0.044540
461.000000	0.044600
460.000000	0.044742
459.000000	0.044894
458.000000	0.044996
457.000000	0.045138
456.000000	0.045318
455.000000	0.045503
454.000000	0.045561
453.000000	0.045716
452.000000	0.045945
451.000000	0.046111
450.000000	0.046240
449.000000	0.046387
448.000000	0.046557
447.000000	0.046664
446.000000	0.046870
445.000000	0.047143
444.000000	0.047366
443.000000	0.047522
442.000000	0.047799
441.000000	0.048013
440.000000	0.048200
439.000000	0.048350
438.000000	0.048585
437.000000	0.048904
436.000000	0.049086
435.000000	0.049189
434.000000	0.049493
433.000000	0.049787
432.000000	0.050048
431.000000	0.050248
430.000000	0.050549
429.000000	0.050782
428.000000	0.051000
427.000000	0.051297
426.000000	0.051585
425.000000	0.051794
424.000000	0.052078
423.000000	0.052333
422.000000	0.052572
421.000000	0.052844
420.000000	0.053155
419.000000	0.053450
418.000000	0.053714
417.000000	0.053904
416.000000	0.054282
415.000000	0.054609
414.000000	0.054911
413.000000	0.055183
412.000000	0.055520
411.000000	0.055744
410.000000	0.056081
409.000000	0.056369
408.000000	0.056673
407.000000	0.056979
406.000000	0.057314
405.000000	0.057602
404.000000	0.057900
403.000000	0.058244
402.000000	0.058604
401.000000	0.058952
400.000000	0.059208
399.000000	0.059443
398.000000	0.060028
397.000000	0.060293
396.000000	0.060626
395.000000	0.061019
394.000000	0.061397
393.000000	0.061748
392.000000	0.061971
391.000000	0.062510
390.000000	0.063003
389.000000	0.063434
388.000000	0.063739
387.000000	0.064121
386.000000	0.064693
385.000000	0.065094
384.000000	0.065537
383.000000	0.066091
382.000000	0.066473
381.000000	0.066802
380.000000	0.067461
379.000000	0.068102
378.000000	0.068362
377.000000	0.068839
376.000000	0.069418
375.000000	0.069970
374.000000	0.070496
373.000000	0.071071
372.000000	0.071675
371.000000	0.072231
370.000000	0.072952
369.000000	0.073651
368.000000	0.074300
367.000000	0.074929
366.000000	0.075579
365.000000	0.076148
364.000000	0.076805
363.000000	0.077517
362.000000	0.078130
361.000000	0.079035
360.000000	0.079790
359.000000	0.080362
358.000000	0.081126
357.000000	0.081869
356.000000	0.082597
355.000000	0.083418
354.000000	0.084283
353.000000	0.085016
352.000000	0.085774
351.000000	0.086662
350.000000	0.087498
349.000000	0.088379
348.000000	0.089250
347.000000	0.090001
346.000000	0.090845
345.000000	0.091836
344.000000	0.092752
343.000000	0.093661
342.000000	0.094589
341.000000	0.095506
340.000000	0.096575
339.000000	0.097533
338.000000	0.098491
337.000000	0.099654
336.000000	0.100601
335.000000	0.101611
334.000000	0.102769
333.000000	0.103826
332.000000	0.105010
331.000000	0.106148
330.000000	0.107246
329.000000	0.108367
328.000000	0.109590
327.000000	0.110870
326.000000	0.112084
325.000000	0.113397
324.000000	0.114716
323.000000	0.115965
322.000000	0.117299
321.000000	0.118708
320.000000	0.120055
319.000000	0.121506
318.000000	0.122043
317.000000	0.121465
316.000000	0.122939
315.000000	0.124560
314.000000	0.126176
313.000000	0.127758
312.000000	0.129351
311.000000	0.131046
310.000000	0.132806
309.000000	0.134604
308.000000	0.136340
307.000000	0.138164
306.000000	0.140047
305.000000	0.141961
304.000000	0.143928
303.000000	0.146067
302.000000	0.148237
301.000000	0.150350
300.000000	0.152522
299.000000	0.154803
298.000000	0.157118
297.000000	0.159534
296.000000	0.162010
295.000000	0.164564
294.000000	0.167131
293.000000	0.169703
292.000000	0.172480
291.000000	0.175408
290.000000	0.178294
289.000000	0.181081
288.000000	0.183928
287.000000	0.186932
286.000000	0.189848
285.000000	0.192656
284.000000	0.195512
283.000000	0.198336
282.000000	0.201036
281.000000	0.203743
280.000000	0.206502
279.000000	0.209287
278.000000	0.212014
277.000000	0.214647
276.000000	0.217337
275.000000	0.219948
274.000000	0.222511
273.000000	0.225097
272.000000	0.227628
271.000000	0.230170
270.000000	0.232722
269.000000	0.235152
268.000000	0.237490
267.000000	0.239801
266.000000	0.242174
265.000000	0.244624
264.000000	0.246946
263.000000	0.249138
262.000000	0.251467
261.000000	0.253753
260.000000	0.255883
259.000000	0.258089
258.000000	0.260342
257.000000	0.262463
256.000000	0.264598
255.000000	0.266793
254.000000	0.269109
253.000000	0.271459
252.000000	0.273916
251.000000	0.276378
250.000000	0.279017
249.000000	0.281832
248.000000	0.284800
247.000000	0.287916
246.000000	0.291167
245.000000	0.294540
244.000000	0.298254
243.000000	0.302131
242.000000	0.306241
241.000000	0.310580
240.000000	0.315076
239.000000	0.319823
238.000000	0.324724
237.000000	0.330026
236.000000	0.335465
235.000000	0.341184
234.000000	0.347097
233.000000	0.353235
232.000000	0.359622
231.000000	0.366277
230.000000	0.373204
229.000000	0.380147
228.000000	0.387641
227.000000	0.394906
226.000000	0.402911
225.000000	0.411530
224.000000	0.420509
223.000000	0.430057
222.000000	0.440375
221.000000	0.451337
220.000000	0.463436
219.000000	0.476352
218.000000	0.490360
217.000000	0.505895
216.000000	0.523174
215.000000	0.542275
214.000000	0.563943
213.000000	0.588206
212.000000	0.615452
211.000000	0.646067
210.000000	0.680344
209.000000	0.719111
208.000000	0.763040
207.000000	0.813166
206.000000	0.870747
205.000000	0.937585
204.000000	1.016768
203.000000	1.113054
202.000000	1.232433
201.000000	1.384371
200.000000	1.582355
