PE UV       SUBTECH     SPECTRUM    ASCII       PEDS        4.00        
   -1
TV6-05B.Sample.Raw.asc
11/10/14
13:33:12.00
11/10/14
13:33:12.00
Hermanni Kaartokallio

200.000000
1
Lambda 650
650N8121101
PerkinElmer UV WinLab 6.0.2.0723 / 1.61.00 Lambda 650

0
0
2
0
0
UV/VIS
1
1
1
uv/vis/nir detector
0
0
0
0
Fix
 
0
0.24
0
0
0
 
 
 
0
 
0
319.2
0
Front
100
 
 
 
0
0
0
 
0
 
 
 
0
 
 
0
0
0
0
0
 
 
 
 
0
0
#HDR
-1
-1
#GR
nm
A
1.0
0.0
800.000000
-1.000000
601
8
3.206767
0.034952
#DATA
800.000000	0.042745
799.000000	0.042808
798.000000	0.042942
797.000000	0.043028
796.000000	0.042995
795.000000	0.043103
794.000000	0.043146
793.000000	0.043074
792.000000	0.043247
791.000000	0.043319
790.000000	0.043358
789.000000	0.043526
788.000000	0.043558
787.000000	0.043665
786.000000	0.043562
785.000000	0.043647
784.000000	0.043781
783.000000	0.043880
782.000000	0.043887
781.000000	0.044051
780.000000	0.044066
779.000000	0.044168
778.000000	0.044196
777.000000	0.044300
776.000000	0.044247
775.000000	0.044172
774.000000	0.044307
773.000000	0.044307
772.000000	0.044421
771.000000	0.044323
770.000000	0.044447
769.000000	0.044478
768.000000	0.044509
767.000000	0.044506
766.000000	0.044651
765.000000	0.044673
764.000000	0.044612
763.000000	0.044766
762.000000	0.044752
761.000000	0.044737
760.000000	0.044779
759.000000	0.044871
758.000000	0.045010
757.000000	0.044893
756.000000	0.044947
755.000000	0.044971
754.000000	0.045116
753.000000	0.045047
752.000000	0.045147
751.000000	0.045155
750.000000	0.045038
749.000000	0.045127
748.000000	0.045078
747.000000	0.045013
746.000000	0.045004
745.000000	0.044993
744.000000	0.045018
743.000000	0.045004
742.000000	0.044944
741.000000	0.044976
740.000000	0.044868
739.000000	0.044784
738.000000	0.044632
737.000000	0.044377
736.000000	0.044057
735.000000	0.043739
734.000000	0.043421
733.000000	0.043023
732.000000	0.042474
731.000000	0.041972
730.000000	0.041484
729.000000	0.041076
728.000000	0.040692
727.000000	0.040233
726.000000	0.039777
725.000000	0.039521
724.000000	0.039332
723.000000	0.039102
722.000000	0.038876
721.000000	0.038652
720.000000	0.038507
719.000000	0.038350
718.000000	0.038093
717.000000	0.037776
716.000000	0.037610
715.000000	0.037409
714.000000	0.037217
713.000000	0.037075
712.000000	0.036946
711.000000	0.036742
710.000000	0.036593
709.000000	0.036474
708.000000	0.036314
707.000000	0.036263
706.000000	0.036206
705.000000	0.036062
704.000000	0.035957
703.000000	0.035866
702.000000	0.035757
701.000000	0.035712
700.000000	0.035716
699.000000	0.035635
698.000000	0.035508
697.000000	0.035437
696.000000	0.035436
695.000000	0.035443
694.000000	0.035370
693.000000	0.035317
692.000000	0.035306
691.000000	0.035257
690.000000	0.035166
689.000000	0.035189
688.000000	0.035212
687.000000	0.035148
686.000000	0.035146
685.000000	0.035147
684.000000	0.035110
683.000000	0.035086
682.000000	0.035068
681.000000	0.035072
680.000000	0.035047
679.000000	0.035052
678.000000	0.035066
677.000000	0.035006
676.000000	0.034991
675.000000	0.034977
674.000000	0.034952
673.000000	0.035006
672.000000	0.035000
671.000000	0.035021
670.000000	0.035234
669.000000	0.035185
668.000000	0.035217
667.000000	0.035149
666.000000	0.035067
665.000000	0.035096
664.000000	0.035068
663.000000	0.035059
662.000000	0.035095
661.000000	0.035094
660.000000	0.035070
659.000000	0.035100
658.000000	0.035052
657.000000	0.035052
656.000000	0.035020
655.000000	0.035034
654.000000	0.035020
653.000000	0.035016
652.000000	0.034977
651.000000	0.035021
650.000000	0.035066
649.000000	0.035096
648.000000	0.035076
647.000000	0.035131
646.000000	0.035136
645.000000	0.035062
644.000000	0.035078
643.000000	0.035140
642.000000	0.035154
641.000000	0.035164
640.000000	0.035296
639.000000	0.035274
638.000000	0.035235
637.000000	0.035242
636.000000	0.035226
635.000000	0.035226
634.000000	0.035173
633.000000	0.035181
632.000000	0.035289
631.000000	0.035322
630.000000	0.035327
629.000000	0.035333
628.000000	0.035336
627.000000	0.035398
626.000000	0.035288
625.000000	0.035357
624.000000	0.035394
623.000000	0.035409
622.000000	0.035441
621.000000	0.035498
620.000000	0.035528
619.000000	0.035544
618.000000	0.035591
617.000000	0.035629
616.000000	0.035683
615.000000	0.035619
614.000000	0.035671
613.000000	0.035681
612.000000	0.035821
611.000000	0.035819
610.000000	0.035785
609.000000	0.035823
608.000000	0.035912
607.000000	0.035940
606.000000	0.035979
605.000000	0.036029
604.000000	0.036016
603.000000	0.036028
602.000000	0.036092
601.000000	0.036138
600.000000	0.036186
599.000000	0.036114
598.000000	0.036038
597.000000	0.036091
596.000000	0.036039
595.000000	0.036092
594.000000	0.036084
593.000000	0.036108
592.000000	0.036088
591.000000	0.036083
590.000000	0.036068
589.000000	0.036143
588.000000	0.036170
587.000000	0.036172
586.000000	0.036210
585.000000	0.036111
584.000000	0.036097
583.000000	0.036165
582.000000	0.036136
581.000000	0.036120
580.000000	0.036085
579.000000	0.036116
578.000000	0.036084
577.000000	0.036104
576.000000	0.036172
575.000000	0.036119
574.000000	0.036064
573.000000	0.036114
572.000000	0.036101
571.000000	0.036113
570.000000	0.036191
569.000000	0.036190
568.000000	0.036146
567.000000	0.036103
566.000000	0.036138
565.000000	0.036202
564.000000	0.036191
563.000000	0.036196
562.000000	0.036242
561.000000	0.036153
560.000000	0.036120
559.000000	0.036162
558.000000	0.036213
557.000000	0.036171
556.000000	0.036198
555.000000	0.036221
554.000000	0.036249
553.000000	0.036204
552.000000	0.036162
551.000000	0.036192
550.000000	0.036145
549.000000	0.036120
548.000000	0.036175
547.000000	0.036295
546.000000	0.036280
545.000000	0.036274
544.000000	0.036369
543.000000	0.036304
542.000000	0.036233
541.000000	0.036254
540.000000	0.036358
539.000000	0.036334
538.000000	0.036354
537.000000	0.036504
536.000000	0.036545
535.000000	0.036517
534.000000	0.036484
533.000000	0.036591
532.000000	0.036588
531.000000	0.036641
530.000000	0.036704
529.000000	0.036716
528.000000	0.036718
527.000000	0.036758
526.000000	0.036869
525.000000	0.036894
524.000000	0.036887
523.000000	0.037026
522.000000	0.037134
521.000000	0.037156
520.000000	0.037196
519.000000	0.037227
518.000000	0.037243
517.000000	0.037291
516.000000	0.037338
515.000000	0.037436
514.000000	0.037502
513.000000	0.037586
512.000000	0.037592
511.000000	0.037631
510.000000	0.037687
509.000000	0.037740
508.000000	0.037792
507.000000	0.037853
506.000000	0.037860
505.000000	0.037908
504.000000	0.037946
503.000000	0.037913
502.000000	0.037927
501.000000	0.038030
500.000000	0.038012
499.000000	0.038026
498.000000	0.037959
497.000000	0.037969
496.000000	0.038126
495.000000	0.038122
494.000000	0.038130
493.000000	0.038198
492.000000	0.038206
491.000000	0.038235
490.000000	0.038290
489.000000	0.038315
488.000000	0.038270
487.000000	0.038341
486.000000	0.038443
485.000000	0.038429
484.000000	0.038447
483.000000	0.038484
482.000000	0.038515
481.000000	0.038496
480.000000	0.038557
479.000000	0.038623
478.000000	0.038592
477.000000	0.038578
476.000000	0.038631
475.000000	0.038710
474.000000	0.038730
473.000000	0.038759
472.000000	0.038827
471.000000	0.038861
470.000000	0.038837
469.000000	0.038851
468.000000	0.038978
467.000000	0.039035
466.000000	0.039058
465.000000	0.039048
464.000000	0.039129
463.000000	0.039283
462.000000	0.039307
461.000000	0.039376
460.000000	0.039534
459.000000	0.039512
458.000000	0.039520
457.000000	0.039669
456.000000	0.039760
455.000000	0.039779
454.000000	0.039867
453.000000	0.040003
452.000000	0.040048
451.000000	0.040136
450.000000	0.040183
449.000000	0.040355
448.000000	0.040386
447.000000	0.040403
446.000000	0.040576
445.000000	0.040650
444.000000	0.040725
443.000000	0.040836
442.000000	0.041037
441.000000	0.041073
440.000000	0.041124
439.000000	0.041324
438.000000	0.041434
437.000000	0.041571
436.000000	0.041658
435.000000	0.041781
434.000000	0.041871
433.000000	0.041988
432.000000	0.042142
431.000000	0.042294
430.000000	0.042380
429.000000	0.042474
428.000000	0.042641
427.000000	0.042869
426.000000	0.042874
425.000000	0.043001
424.000000	0.043213
423.000000	0.043277
422.000000	0.043296
421.000000	0.043468
420.000000	0.043728
419.000000	0.043823
418.000000	0.043910
417.000000	0.044062
416.000000	0.044134
415.000000	0.044277
414.000000	0.044442
413.000000	0.044616
412.000000	0.044664
411.000000	0.044665
410.000000	0.044875
409.000000	0.045104
408.000000	0.045120
407.000000	0.045206
406.000000	0.045463
405.000000	0.045496
404.000000	0.045534
403.000000	0.045724
402.000000	0.045968
401.000000	0.045935
400.000000	0.045972
399.000000	0.046177
398.000000	0.046361
397.000000	0.046468
396.000000	0.046518
395.000000	0.046683
394.000000	0.046789
393.000000	0.046812
392.000000	0.046895
391.000000	0.047281
390.000000	0.047339
389.000000	0.047351
388.000000	0.047550
387.000000	0.047790
386.000000	0.047878
385.000000	0.048033
384.000000	0.048233
383.000000	0.048442
382.000000	0.048352
381.000000	0.048517
380.000000	0.048972
379.000000	0.049120
378.000000	0.048909
377.000000	0.049109
376.000000	0.049258
375.000000	0.049544
374.000000	0.049728
373.000000	0.049967
372.000000	0.050119
371.000000	0.050309
370.000000	0.050692
369.000000	0.050998
368.000000	0.051174
367.000000	0.051337
366.000000	0.051762
365.000000	0.051907
364.000000	0.052119
363.000000	0.052373
362.000000	0.052702
361.000000	0.052975
360.000000	0.053201
359.000000	0.053551
358.000000	0.053831
357.000000	0.054021
356.000000	0.054323
355.000000	0.054765
354.000000	0.054922
353.000000	0.055225
352.000000	0.055617
351.000000	0.056009
350.000000	0.056236
349.000000	0.056596
348.000000	0.057063
347.000000	0.057295
346.000000	0.057482
345.000000	0.057906
344.000000	0.058343
343.000000	0.058656
342.000000	0.058929
341.000000	0.059401
340.000000	0.059829
339.000000	0.060135
338.000000	0.060501
337.000000	0.061069
336.000000	0.061444
335.000000	0.061706
334.000000	0.062282
333.000000	0.062715
332.000000	0.063169
331.000000	0.063575
330.000000	0.064087
329.000000	0.064532
328.000000	0.065040
327.000000	0.065610
326.000000	0.066147
325.000000	0.066659
324.000000	0.067179
323.000000	0.067779
322.000000	0.068368
321.000000	0.068907
320.000000	0.069437
319.000000	0.070294
318.000000	0.069665
317.000000	0.067667
316.000000	0.068326
315.000000	0.068998
314.000000	0.069790
313.000000	0.070635
312.000000	0.071200
311.000000	0.071856
310.000000	0.072695
309.000000	0.073577
308.000000	0.074203
307.000000	0.075033
306.000000	0.076069
305.000000	0.076974
304.000000	0.077726
303.000000	0.078769
302.000000	0.079907
301.000000	0.080847
300.000000	0.081830
299.000000	0.082952
298.000000	0.084023
297.000000	0.085126
296.000000	0.086302
295.000000	0.087600
294.000000	0.088856
293.000000	0.090018
292.000000	0.091459
291.000000	0.092956
290.000000	0.094301
289.000000	0.095710
288.000000	0.097162
287.000000	0.098665
286.000000	0.100056
285.000000	0.101518
284.000000	0.103185
283.000000	0.104629
282.000000	0.105973
281.000000	0.107633
280.000000	0.109266
279.000000	0.110739
278.000000	0.112198
277.000000	0.113656
276.000000	0.115209
275.000000	0.116676
274.000000	0.118113
273.000000	0.119727
272.000000	0.121234
271.000000	0.122626
270.000000	0.124178
269.000000	0.125734
268.000000	0.127104
267.000000	0.128596
266.000000	0.130198
265.000000	0.131673
264.000000	0.132980
263.000000	0.134390
262.000000	0.135853
261.000000	0.137226
260.000000	0.138492
259.000000	0.139827
258.000000	0.141201
257.000000	0.142407
256.000000	0.143657
255.000000	0.145065
254.000000	0.146326
253.000000	0.147604
252.000000	0.149029
251.000000	0.150411
250.000000	0.151834
249.000000	0.153336
248.000000	0.154995
247.000000	0.156691
246.000000	0.158376
245.000000	0.160154
244.000000	0.162209
243.000000	0.164224
242.000000	0.166324
241.000000	0.168814
240.000000	0.171291
239.000000	0.173760
238.000000	0.176403
237.000000	0.179420
236.000000	0.182505
235.000000	0.185577
234.000000	0.188960
233.000000	0.192585
232.000000	0.196160
231.000000	0.199976
230.000000	0.204037
229.000000	0.208350
228.000000	0.212723
227.000000	0.217436
226.000000	0.222686
225.000000	0.228403
224.000000	0.234715
223.000000	0.241946
222.000000	0.250323
221.000000	0.259989
220.000000	0.271508
219.000000	0.285512
218.000000	0.302170
217.000000	0.322350
216.000000	0.347139
215.000000	0.377954
214.000000	0.414852
213.000000	0.460485
212.000000	0.515676
211.000000	0.582174
210.000000	0.661154
209.000000	0.754860
208.000000	0.865810
207.000000	0.996823
206.000000	1.153109
205.000000	1.339320
204.000000	1.563890
203.000000	1.840052
202.000000	2.183830
201.000000	2.622068
200.000000	3.206767
