PE UV       SUBTECH     SPECTRUM    ASCII       PEDS        4.00        
   -1
KI5-02B_1CM.Sample.Raw.asc
11/08/25
12:43:39.00
11/08/25
12:43:39.00
Hermanni Kaartokallio

200.000000
1
Lambda 650
650N8121101
PerkinElmer UV WinLab 6.0.2.0723 / 1.61.00 Lambda 650

0
0
2
0
0
UV/VIS
1
1
1
uv/vis/nir detector
0
0
0
0
Fix
 
0
0.24
0
0
0
 
 
 
0
 
0
319.2
0
Front
100
 
 
 
0
0
0
 
0
 
 
 
0
 
 
0
0
0
0
0
 
 
 
 
0
0
#HDR
-1
-1
#GR
nm
A
1.0
0.0
800.000000
-1.000000
601
8
1.597876
0.032045
#DATA
800.000000	0.039327
799.000000	0.039427
798.000000	0.039717
797.000000	0.039624
796.000000	0.039488
795.000000	0.039669
794.000000	0.039800
793.000000	0.039645
792.000000	0.039853
791.000000	0.039888
790.000000	0.039959
789.000000	0.039808
788.000000	0.039978
787.000000	0.040066
786.000000	0.040102
785.000000	0.040230
784.000000	0.040397
783.000000	0.040441
782.000000	0.040557
781.000000	0.040533
780.000000	0.040832
779.000000	0.041030
778.000000	0.041095
777.000000	0.041179
776.000000	0.041366
775.000000	0.041446
774.000000	0.041688
773.000000	0.041694
772.000000	0.041681
771.000000	0.041816
770.000000	0.041961
769.000000	0.041946
768.000000	0.042134
767.000000	0.042156
766.000000	0.042135
765.000000	0.042126
764.000000	0.042122
763.000000	0.042156
762.000000	0.042257
761.000000	0.042165
760.000000	0.041987
759.000000	0.041999
758.000000	0.041922
757.000000	0.041915
756.000000	0.042042
755.000000	0.042058
754.000000	0.042009
753.000000	0.041971
752.000000	0.042025
751.000000	0.042040
750.000000	0.042048
749.000000	0.041995
748.000000	0.041977
747.000000	0.041916
746.000000	0.041981
745.000000	0.042091
744.000000	0.042177
743.000000	0.042095
742.000000	0.042051
741.000000	0.042132
740.000000	0.042093
739.000000	0.042094
738.000000	0.042134
737.000000	0.041930
736.000000	0.041641
735.000000	0.041319
734.000000	0.041049
733.000000	0.040718
732.000000	0.040238
731.000000	0.039641
730.000000	0.039111
729.000000	0.038567
728.000000	0.038049
727.000000	0.037725
726.000000	0.037481
725.000000	0.037084
724.000000	0.036744
723.000000	0.036566
722.000000	0.036376
721.000000	0.036143
720.000000	0.035994
719.000000	0.035770
718.000000	0.035484
717.000000	0.035262
716.000000	0.035205
715.000000	0.035205
714.000000	0.035042
713.000000	0.034845
712.000000	0.034778
711.000000	0.034736
710.000000	0.034584
709.000000	0.034518
708.000000	0.034592
707.000000	0.034484
706.000000	0.034308
705.000000	0.034186
704.000000	0.034026
703.000000	0.033885
702.000000	0.033735
701.000000	0.033501
700.000000	0.033266
699.000000	0.033080
698.000000	0.032955
697.000000	0.032883
696.000000	0.032778
695.000000	0.032627
694.000000	0.032564
693.000000	0.032481
692.000000	0.032326
691.000000	0.032341
690.000000	0.032377
689.000000	0.032226
688.000000	0.032158
687.000000	0.032185
686.000000	0.032101
685.000000	0.032045
684.000000	0.032092
683.000000	0.032204
682.000000	0.032284
681.000000	0.032204
680.000000	0.032239
679.000000	0.032296
678.000000	0.032328
677.000000	0.032474
676.000000	0.032586
675.000000	0.032442
674.000000	0.032400
673.000000	0.032527
672.000000	0.032641
671.000000	0.032708
670.000000	0.032746
669.000000	0.032642
668.000000	0.032659
667.000000	0.032646
666.000000	0.032676
665.000000	0.032666
664.000000	0.032715
663.000000	0.032629
662.000000	0.032649
661.000000	0.032639
660.000000	0.032577
659.000000	0.032709
658.000000	0.032767
657.000000	0.032586
656.000000	0.032599
655.000000	0.032617
654.000000	0.032654
653.000000	0.032713
652.000000	0.032727
651.000000	0.032629
650.000000	0.032739
649.000000	0.032793
648.000000	0.032851
647.000000	0.032999
646.000000	0.033094
645.000000	0.032963
644.000000	0.033182
643.000000	0.033229
642.000000	0.033260
641.000000	0.033481
640.000000	0.033677
639.000000	0.033499
638.000000	0.033504
637.000000	0.033577
636.000000	0.033647
635.000000	0.033821
634.000000	0.033839
633.000000	0.033850
632.000000	0.033912
631.000000	0.033833
630.000000	0.033897
629.000000	0.034080
628.000000	0.034062
627.000000	0.033818
626.000000	0.033892
625.000000	0.033950
624.000000	0.033837
623.000000	0.034036
622.000000	0.033969
621.000000	0.033744
620.000000	0.033782
619.000000	0.033756
618.000000	0.033843
617.000000	0.033939
616.000000	0.033911
615.000000	0.033882
614.000000	0.033969
613.000000	0.033825
612.000000	0.033965
611.000000	0.034149
610.000000	0.034242
609.000000	0.033990
608.000000	0.034107
607.000000	0.034342
606.000000	0.034344
605.000000	0.034570
604.000000	0.034622
603.000000	0.034451
602.000000	0.034539
601.000000	0.034631
600.000000	0.034703
599.000000	0.034933
598.000000	0.034820
597.000000	0.034779
596.000000	0.034930
595.000000	0.035030
594.000000	0.034934
593.000000	0.035274
592.000000	0.035189
591.000000	0.035105
590.000000	0.035168
589.000000	0.035392
588.000000	0.035327
587.000000	0.035523
586.000000	0.035729
585.000000	0.035639
584.000000	0.035589
583.000000	0.035711
582.000000	0.035911
581.000000	0.036136
580.000000	0.036200
579.000000	0.036047
578.000000	0.036147
577.000000	0.036236
576.000000	0.036326
575.000000	0.036670
574.000000	0.036722
573.000000	0.036493
572.000000	0.036600
571.000000	0.036767
570.000000	0.036801
569.000000	0.037036
568.000000	0.037185
567.000000	0.037116
566.000000	0.037084
565.000000	0.037188
564.000000	0.037419
563.000000	0.037539
562.000000	0.037588
561.000000	0.037202
560.000000	0.037389
559.000000	0.037297
558.000000	0.037409
557.000000	0.037524
556.000000	0.037513
555.000000	0.037506
554.000000	0.037740
553.000000	0.037869
552.000000	0.037796
551.000000	0.037696
550.000000	0.037897
549.000000	0.037926
548.000000	0.037890
547.000000	0.037985
546.000000	0.037973
545.000000	0.037942
544.000000	0.037945
543.000000	0.038078
542.000000	0.038161
541.000000	0.038028
540.000000	0.038001
539.000000	0.038128
538.000000	0.038108
537.000000	0.038070
536.000000	0.038227
535.000000	0.038232
534.000000	0.038138
533.000000	0.038111
532.000000	0.038166
531.000000	0.038209
530.000000	0.038183
529.000000	0.038181
528.000000	0.038127
527.000000	0.038153
526.000000	0.038223
525.000000	0.038340
524.000000	0.038406
523.000000	0.038322
522.000000	0.038384
521.000000	0.038473
520.000000	0.038430
519.000000	0.038427
518.000000	0.038642
517.000000	0.038657
516.000000	0.038613
515.000000	0.038688
514.000000	0.038756
513.000000	0.038806
512.000000	0.038903
511.000000	0.039022
510.000000	0.039093
509.000000	0.039138
508.000000	0.039134
507.000000	0.039294
506.000000	0.039467
505.000000	0.039453
504.000000	0.039500
503.000000	0.039703
502.000000	0.039759
501.000000	0.039802
500.000000	0.039979
499.000000	0.040114
498.000000	0.040129
497.000000	0.040220
496.000000	0.040445
495.000000	0.040639
494.000000	0.040755
493.000000	0.040930
492.000000	0.041097
491.000000	0.041153
490.000000	0.041232
489.000000	0.041448
488.000000	0.041686
487.000000	0.041797
486.000000	0.041935
485.000000	0.042167
484.000000	0.042328
483.000000	0.042486
482.000000	0.042718
481.000000	0.042845
480.000000	0.042812
479.000000	0.042911
478.000000	0.043119
477.000000	0.043324
476.000000	0.043441
475.000000	0.043550
474.000000	0.043736
473.000000	0.043922
472.000000	0.044045
471.000000	0.044252
470.000000	0.044564
469.000000	0.044646
468.000000	0.044739
467.000000	0.044964
466.000000	0.045219
465.000000	0.045420
464.000000	0.045665
463.000000	0.045927
462.000000	0.046046
461.000000	0.046142
460.000000	0.046445
459.000000	0.046759
458.000000	0.046922
457.000000	0.047086
456.000000	0.047326
455.000000	0.047561
454.000000	0.047711
453.000000	0.047977
452.000000	0.048244
451.000000	0.048300
450.000000	0.048481
449.000000	0.048824
448.000000	0.049069
447.000000	0.049274
446.000000	0.049592
445.000000	0.049831
444.000000	0.050046
443.000000	0.050217
442.000000	0.050459
441.000000	0.050741
440.000000	0.050954
439.000000	0.051073
438.000000	0.051339
437.000000	0.051579
436.000000	0.051675
435.000000	0.052025
434.000000	0.052399
433.000000	0.052489
432.000000	0.052645
431.000000	0.052966
430.000000	0.053215
429.000000	0.053487
428.000000	0.053685
427.000000	0.054019
426.000000	0.054200
425.000000	0.054412
424.000000	0.054693
423.000000	0.055094
422.000000	0.055280
421.000000	0.055411
420.000000	0.055804
419.000000	0.056094
418.000000	0.056219
417.000000	0.056560
416.000000	0.057034
415.000000	0.057249
414.000000	0.057528
413.000000	0.057852
412.000000	0.058342
411.000000	0.058634
410.000000	0.058991
409.000000	0.059422
408.000000	0.059761
407.000000	0.060052
406.000000	0.060536
405.000000	0.061081
404.000000	0.061404
403.000000	0.061669
402.000000	0.062259
401.000000	0.062772
400.000000	0.063085
399.000000	0.063634
398.000000	0.064333
397.000000	0.064756
396.000000	0.065258
395.000000	0.065815
394.000000	0.066479
393.000000	0.067043
392.000000	0.067497
391.000000	0.068113
390.000000	0.068837
389.000000	0.069274
388.000000	0.069906
387.000000	0.070687
386.000000	0.071334
385.000000	0.071834
384.000000	0.072457
383.000000	0.073188
382.000000	0.073641
381.000000	0.074332
380.000000	0.075281
379.000000	0.075828
378.000000	0.075797
377.000000	0.076668
376.000000	0.077017
375.000000	0.077688
374.000000	0.078438
373.000000	0.079418
372.000000	0.080169
371.000000	0.080960
370.000000	0.081771
369.000000	0.082660
368.000000	0.083417
367.000000	0.084081
366.000000	0.085024
365.000000	0.086036
364.000000	0.086739
363.000000	0.087640
362.000000	0.088579
361.000000	0.089527
360.000000	0.090396
359.000000	0.091532
358.000000	0.092394
357.000000	0.093268
356.000000	0.094135
355.000000	0.095354
354.000000	0.096398
353.000000	0.097385
352.000000	0.098390
351.000000	0.099488
350.000000	0.100537
349.000000	0.101448
348.000000	0.102619
347.000000	0.103733
346.000000	0.104838
345.000000	0.105823
344.000000	0.107106
343.000000	0.108179
342.000000	0.109210
341.000000	0.110557
340.000000	0.111744
339.000000	0.112870
338.000000	0.113958
337.000000	0.115414
336.000000	0.116745
335.000000	0.117819
334.000000	0.119112
333.000000	0.120425
332.000000	0.121734
331.000000	0.122998
330.000000	0.124383
329.000000	0.125808
328.000000	0.127085
327.000000	0.128341
326.000000	0.129891
325.000000	0.131156
324.000000	0.132595
323.000000	0.134120
322.000000	0.135659
321.000000	0.137112
320.000000	0.138586
319.000000	0.140301
318.000000	0.141898
317.000000	0.143528
316.000000	0.145189
315.000000	0.146735
314.000000	0.148493
313.000000	0.150318
312.000000	0.152135
311.000000	0.153839
310.000000	0.155756
309.000000	0.157649
308.000000	0.159362
307.000000	0.161156
306.000000	0.163058
305.000000	0.165241
304.000000	0.167222
303.000000	0.169213
302.000000	0.171407
301.000000	0.173472
300.000000	0.175486
299.000000	0.177813
298.000000	0.180100
297.000000	0.182224
296.000000	0.184472
295.000000	0.186854
294.000000	0.189257
293.000000	0.191729
292.000000	0.194341
291.000000	0.196899
290.000000	0.199434
289.000000	0.202019
288.000000	0.204593
287.000000	0.207353
286.000000	0.210131
285.000000	0.212803
284.000000	0.215570
283.000000	0.218290
282.000000	0.221043
281.000000	0.223901
280.000000	0.226734
279.000000	0.229398
278.000000	0.232090
277.000000	0.234977
276.000000	0.237860
275.000000	0.240750
274.000000	0.243783
273.000000	0.246766
272.000000	0.249483
271.000000	0.252241
270.000000	0.255215
269.000000	0.258150
268.000000	0.260890
267.000000	0.263673
266.000000	0.266384
265.000000	0.268884
264.000000	0.271263
263.000000	0.273836
262.000000	0.276349
261.000000	0.278627
260.000000	0.280864
259.000000	0.283281
258.000000	0.285658
257.000000	0.287749
256.000000	0.290007
255.000000	0.292178
254.000000	0.294302
253.000000	0.296385
252.000000	0.298673
251.000000	0.301112
250.000000	0.303417
249.000000	0.305678
248.000000	0.308321
247.000000	0.311128
246.000000	0.313871
245.000000	0.317096
244.000000	0.320540
243.000000	0.323977
242.000000	0.327538
241.000000	0.331376
240.000000	0.335457
239.000000	0.339655
238.000000	0.344010
237.000000	0.348627
236.000000	0.353392
235.000000	0.358307
234.000000	0.363413
233.000000	0.368871
232.000000	0.374338
231.000000	0.379885
230.000000	0.385565
229.000000	0.391369
228.000000	0.396701
227.000000	0.402670
226.000000	0.408707
225.000000	0.414815
224.000000	0.421238
223.000000	0.428157
222.000000	0.435541
221.000000	0.443306
220.000000	0.451923
219.000000	0.461260
218.000000	0.471698
217.000000	0.483525
216.000000	0.496957
215.000000	0.512666
214.000000	0.530792
213.000000	0.551402
212.000000	0.575608
211.000000	0.603457
210.000000	0.635698
209.000000	0.672175
208.000000	0.715195
207.000000	0.764860
206.000000	0.823863
205.000000	0.892925
204.000000	0.976698
203.000000	1.080157
202.000000	1.210457
201.000000	1.378380
200.000000	1.597876
