PE UV       SUBTECH     SPECTRUM    ASCII       PEDS        4.00        
   -1
KI5-XXB_1CM.Sample.Raw.asc
11/08/25
12:34:50.00
11/08/25
12:34:50.00
Hermanni Kaartokallio

200.000000
1
Lambda 650
650N8121101
PerkinElmer UV WinLab 6.0.2.0723 / 1.61.00 Lambda 650

0
0
2
0
0
UV/VIS
1
1
1
uv/vis/nir detector
0
0
0
0
Fix
 
0
0.24
0
0
0
 
 
 
0
 
0
319.2
0
Front
100
 
 
 
0
0
0
 
0
 
 
 
0
 
 
0
0
0
0
0
 
 
 
 
0
0
#HDR
-1
-1
#GR
nm
A
1.0
0.0
800.000000
-1.000000
601
8
1.688030
0.032716
#DATA
800.000000	0.039408
799.000000	0.039427
798.000000	0.039795
797.000000	0.039680
796.000000	0.039777
795.000000	0.039822
794.000000	0.039939
793.000000	0.039899
792.000000	0.040213
791.000000	0.040254
790.000000	0.040281
789.000000	0.040185
788.000000	0.040282
787.000000	0.040412
786.000000	0.040491
785.000000	0.040563
784.000000	0.040815
783.000000	0.040870
782.000000	0.040886
781.000000	0.041045
780.000000	0.041288
779.000000	0.041322
778.000000	0.041451
777.000000	0.041684
776.000000	0.041710
775.000000	0.041962
774.000000	0.042087
773.000000	0.042143
772.000000	0.042199
771.000000	0.042366
770.000000	0.042557
769.000000	0.042602
768.000000	0.042760
767.000000	0.042878
766.000000	0.042835
765.000000	0.042904
764.000000	0.042873
763.000000	0.042916
762.000000	0.042985
761.000000	0.042941
760.000000	0.042811
759.000000	0.042795
758.000000	0.042665
757.000000	0.042585
756.000000	0.042720
755.000000	0.042644
754.000000	0.042565
753.000000	0.042530
752.000000	0.042602
751.000000	0.042496
750.000000	0.042517
749.000000	0.042516
748.000000	0.042471
747.000000	0.042459
746.000000	0.042428
745.000000	0.042474
744.000000	0.042544
743.000000	0.042499
742.000000	0.042426
741.000000	0.042342
740.000000	0.042170
739.000000	0.042129
738.000000	0.042045
737.000000	0.041843
736.000000	0.041467
735.000000	0.041034
734.000000	0.040630
733.000000	0.040225
732.000000	0.039740
731.000000	0.039225
730.000000	0.038642
729.000000	0.038155
728.000000	0.037678
727.000000	0.037367
726.000000	0.037175
725.000000	0.036764
724.000000	0.036377
723.000000	0.036107
722.000000	0.035857
721.000000	0.035626
720.000000	0.035483
719.000000	0.035298
718.000000	0.035057
717.000000	0.034916
716.000000	0.034805
715.000000	0.034660
714.000000	0.034526
713.000000	0.034383
712.000000	0.034287
711.000000	0.034190
710.000000	0.034058
709.000000	0.034057
708.000000	0.034109
707.000000	0.034009
706.000000	0.033894
705.000000	0.033861
704.000000	0.033747
703.000000	0.033581
702.000000	0.033489
701.000000	0.033327
700.000000	0.033142
699.000000	0.033095
698.000000	0.033068
697.000000	0.033040
696.000000	0.032922
695.000000	0.032844
694.000000	0.032801
693.000000	0.032740
692.000000	0.032716
691.000000	0.032767
690.000000	0.032807
689.000000	0.032830
688.000000	0.032877
687.000000	0.032909
686.000000	0.032863
685.000000	0.032837
684.000000	0.032911
683.000000	0.033000
682.000000	0.033053
681.000000	0.033154
680.000000	0.033194
679.000000	0.033197
678.000000	0.033261
677.000000	0.033339
676.000000	0.033407
675.000000	0.033440
674.000000	0.033433
673.000000	0.033500
672.000000	0.033577
671.000000	0.033589
670.000000	0.033694
669.000000	0.033781
668.000000	0.033775
667.000000	0.033768
666.000000	0.033776
665.000000	0.033708
664.000000	0.033769
663.000000	0.033852
662.000000	0.033889
661.000000	0.033888
660.000000	0.033903
659.000000	0.033919
658.000000	0.033932
657.000000	0.033962
656.000000	0.033914
655.000000	0.033926
654.000000	0.033968
653.000000	0.033928
652.000000	0.034006
651.000000	0.034098
650.000000	0.034201
649.000000	0.034200
648.000000	0.034341
647.000000	0.034385
646.000000	0.034506
645.000000	0.034657
644.000000	0.034780
643.000000	0.034802
642.000000	0.034832
641.000000	0.034988
640.000000	0.035293
639.000000	0.035336
638.000000	0.035306
637.000000	0.035425
636.000000	0.035498
635.000000	0.035508
634.000000	0.035621
633.000000	0.035810
632.000000	0.035761
631.000000	0.035730
630.000000	0.035765
629.000000	0.035768
628.000000	0.035859
627.000000	0.035862
626.000000	0.035855
625.000000	0.035827
624.000000	0.035826
623.000000	0.035836
622.000000	0.035960
621.000000	0.035926
620.000000	0.035958
619.000000	0.035918
618.000000	0.035990
617.000000	0.035989
616.000000	0.036040
615.000000	0.036198
614.000000	0.036152
613.000000	0.036053
612.000000	0.036182
611.000000	0.036294
610.000000	0.036422
609.000000	0.036465
608.000000	0.036480
607.000000	0.036627
606.000000	0.036670
605.000000	0.036815
604.000000	0.036919
603.000000	0.036977
602.000000	0.036963
601.000000	0.037036
600.000000	0.037377
599.000000	0.037241
598.000000	0.037240
597.000000	0.037556
596.000000	0.037536
595.000000	0.037562
594.000000	0.037652
593.000000	0.037778
592.000000	0.037827
591.000000	0.037946
590.000000	0.038056
589.000000	0.038124
588.000000	0.038105
587.000000	0.038184
586.000000	0.038377
585.000000	0.038677
584.000000	0.038733
583.000000	0.038725
582.000000	0.038877
581.000000	0.038983
580.000000	0.039266
579.000000	0.039460
578.000000	0.039660
577.000000	0.039691
576.000000	0.039740
575.000000	0.040046
574.000000	0.040159
573.000000	0.040218
572.000000	0.040437
571.000000	0.040456
570.000000	0.040521
569.000000	0.040636
568.000000	0.040786
567.000000	0.040966
566.000000	0.041010
565.000000	0.041078
564.000000	0.041232
563.000000	0.041364
562.000000	0.041453
561.000000	0.041594
560.000000	0.041776
559.000000	0.041833
558.000000	0.041981
557.000000	0.042064
556.000000	0.042168
555.000000	0.042274
554.000000	0.042461
553.000000	0.042561
552.000000	0.042571
551.000000	0.042608
550.000000	0.042840
549.000000	0.042844
548.000000	0.042929
547.000000	0.043092
546.000000	0.043137
545.000000	0.043187
544.000000	0.043241
543.000000	0.043409
542.000000	0.043559
541.000000	0.043566
540.000000	0.043595
539.000000	0.043716
538.000000	0.043729
537.000000	0.043870
536.000000	0.044043
535.000000	0.044135
534.000000	0.044140
533.000000	0.044160
532.000000	0.044323
531.000000	0.044419
530.000000	0.044495
529.000000	0.044592
528.000000	0.044604
527.000000	0.044705
526.000000	0.044791
525.000000	0.044975
524.000000	0.045113
523.000000	0.045126
522.000000	0.045236
521.000000	0.045366
520.000000	0.045374
519.000000	0.045484
518.000000	0.045755
517.000000	0.045825
516.000000	0.045847
515.000000	0.045952
514.000000	0.046128
513.000000	0.046303
512.000000	0.046454
511.000000	0.046614
510.000000	0.046721
509.000000	0.046843
508.000000	0.046991
507.000000	0.047205
506.000000	0.047410
505.000000	0.047532
504.000000	0.047687
503.000000	0.047914
502.000000	0.048048
501.000000	0.048238
500.000000	0.048518
499.000000	0.048701
498.000000	0.048802
497.000000	0.048983
496.000000	0.049294
495.000000	0.049556
494.000000	0.049759
493.000000	0.050023
492.000000	0.050295
491.000000	0.050496
490.000000	0.050701
489.000000	0.051039
488.000000	0.051327
487.000000	0.051514
486.000000	0.051811
485.000000	0.052152
484.000000	0.052368
483.000000	0.052597
482.000000	0.052956
481.000000	0.053165
480.000000	0.053264
479.000000	0.053537
478.000000	0.053871
477.000000	0.054218
476.000000	0.054471
475.000000	0.054674
474.000000	0.054924
473.000000	0.055187
472.000000	0.055487
471.000000	0.055830
470.000000	0.056207
469.000000	0.056525
468.000000	0.056786
467.000000	0.057076
466.000000	0.057429
465.000000	0.057792
464.000000	0.058203
463.000000	0.058661
462.000000	0.058886
461.000000	0.059168
460.000000	0.059588
459.000000	0.060049
458.000000	0.060466
457.000000	0.060797
456.000000	0.061259
455.000000	0.061670
454.000000	0.062005
453.000000	0.062488
452.000000	0.062945
451.000000	0.063211
450.000000	0.063596
449.000000	0.064166
448.000000	0.064632
447.000000	0.064989
446.000000	0.065558
445.000000	0.066122
444.000000	0.066515
443.000000	0.066919
442.000000	0.067413
441.000000	0.067993
440.000000	0.068469
439.000000	0.068909
438.000000	0.069471
437.000000	0.069931
436.000000	0.070345
435.000000	0.070994
434.000000	0.071634
433.000000	0.071968
432.000000	0.072408
431.000000	0.073017
430.000000	0.073620
429.000000	0.074121
428.000000	0.074750
427.000000	0.075371
426.000000	0.075848
425.000000	0.076392
424.000000	0.077017
423.000000	0.077790
422.000000	0.078302
421.000000	0.078772
420.000000	0.079468
419.000000	0.080074
418.000000	0.080609
417.000000	0.081303
416.000000	0.082127
415.000000	0.082722
414.000000	0.083334
413.000000	0.084130
412.000000	0.084928
411.000000	0.085793
410.000000	0.086349
409.000000	0.087285
408.000000	0.088047
407.000000	0.088915
406.000000	0.089751
405.000000	0.090749
404.000000	0.091550
403.000000	0.092273
402.000000	0.093314
401.000000	0.094281
400.000000	0.095141
399.000000	0.096370
398.000000	0.097190
397.000000	0.098231
396.000000	0.099151
395.000000	0.100262
394.000000	0.101400
393.000000	0.102523
392.000000	0.103664
391.000000	0.104739
390.000000	0.106077
389.000000	0.107028
388.000000	0.108254
387.000000	0.109674
386.000000	0.110813
385.000000	0.111945
384.000000	0.113345
383.000000	0.114677
382.000000	0.115760
381.000000	0.117144
380.000000	0.118820
379.000000	0.120132
378.000000	0.121621
377.000000	0.123136
376.000000	0.124597
375.000000	0.126203
374.000000	0.127616
373.000000	0.129222
372.000000	0.130957
371.000000	0.132291
370.000000	0.133895
369.000000	0.135710
368.000000	0.137317
367.000000	0.138992
366.000000	0.140830
365.000000	0.142638
364.000000	0.144098
363.000000	0.146171
362.000000	0.148079
361.000000	0.149924
360.000000	0.151759
359.000000	0.153816
358.000000	0.155605
357.000000	0.157394
356.000000	0.159360
355.000000	0.161547
354.000000	0.163699
353.000000	0.165619
352.000000	0.167551
351.000000	0.169848
350.000000	0.171823
349.000000	0.173868
348.000000	0.176251
347.000000	0.178307
346.000000	0.180289
345.000000	0.182554
344.000000	0.184815
343.000000	0.187078
342.000000	0.189201
341.000000	0.191634
340.000000	0.193855
339.000000	0.196116
338.000000	0.198451
337.000000	0.200901
336.000000	0.203400
335.000000	0.205583
334.000000	0.208038
333.000000	0.210540
332.000000	0.213028
331.000000	0.215500
330.000000	0.218097
329.000000	0.220634
328.000000	0.223017
327.000000	0.225548
326.000000	0.228264
325.000000	0.230858
324.000000	0.233471
323.000000	0.236235
322.000000	0.239006
321.000000	0.241745
320.000000	0.244518
319.000000	0.247459
318.000000	0.250473
317.000000	0.253307
316.000000	0.256257
315.000000	0.259130
314.000000	0.262080
313.000000	0.265318
312.000000	0.268316
311.000000	0.271418
310.000000	0.274697
309.000000	0.277880
308.000000	0.281086
307.000000	0.284394
306.000000	0.287842
305.000000	0.291357
304.000000	0.294808
303.000000	0.298357
302.000000	0.301969
301.000000	0.305508
300.000000	0.308967
299.000000	0.312689
298.000000	0.316362
297.000000	0.319793
296.000000	0.323640
295.000000	0.327582
294.000000	0.331392
293.000000	0.335278
292.000000	0.339379
291.000000	0.343496
290.000000	0.347612
289.000000	0.351664
288.000000	0.355893
287.000000	0.360308
286.000000	0.364419
285.000000	0.368488
284.000000	0.372998
283.000000	0.377348
282.000000	0.381613
281.000000	0.386134
280.000000	0.390721
279.000000	0.395075
278.000000	0.399349
277.000000	0.403936
276.000000	0.408656
275.000000	0.413297
274.000000	0.418106
273.000000	0.422917
272.000000	0.427461
271.000000	0.432025
270.000000	0.436766
269.000000	0.441492
268.000000	0.446086
267.000000	0.450622
266.000000	0.455114
265.000000	0.459390
264.000000	0.463541
263.000000	0.467802
262.000000	0.472027
261.000000	0.475967
260.000000	0.479806
259.000000	0.483685
258.000000	0.487505
257.000000	0.491153
256.000000	0.494998
255.000000	0.498711
254.000000	0.502303
253.000000	0.506021
252.000000	0.509983
251.000000	0.514016
250.000000	0.518113
249.000000	0.522229
248.000000	0.526792
247.000000	0.531567
246.000000	0.536410
245.000000	0.541727
244.000000	0.547449
243.000000	0.553302
242.000000	0.559428
241.000000	0.566059
240.000000	0.572839
239.000000	0.579788
238.000000	0.587029
237.000000	0.594452
236.000000	0.602316
235.000000	0.610570
234.000000	0.619168
233.000000	0.627930
232.000000	0.636934
231.000000	0.645986
230.000000	0.654963
229.000000	0.664177
228.000000	0.673299
227.000000	0.682607
226.000000	0.692147
225.000000	0.701775
224.000000	0.711650
223.000000	0.721904
222.000000	0.732657
221.000000	0.743746
220.000000	0.755375
219.000000	0.767708
218.000000	0.781027
217.000000	0.795563
216.000000	0.811276
215.000000	0.828702
214.000000	0.847839
213.000000	0.868938
212.000000	0.892415
211.000000	0.918204
210.000000	0.947098
209.000000	0.978496
208.000000	1.014475
207.000000	1.055373
206.000000	1.102010
205.000000	1.156151
204.000000	1.220737
203.000000	1.298179
202.000000	1.396965
201.000000	1.522511
200.000000	1.688030
