PE UV       SUBTECH     SPECTRUM    ASCII       PEDS        4.00        
   -1
KI5-000_1CM.Sample.Raw.asc
11/08/25
12:11:57.00
11/08/25
12:11:57.00
Hermanni Kaartokallio

200.000000
1
Lambda 650
650N8121101
PerkinElmer UV WinLab 6.0.2.0723 / 1.61.00 Lambda 650

0
0
2
0
0
UV/VIS
1
1
1
uv/vis/nir detector
0
0
0
0
Fix
 
0
0.24
0
0
0
 
 
 
0
 
0
319.2
0
Front
100
 
 
 
0
0
0
 
0
 
 
 
0
 
 
0
0
0
0
0
 
 
 
 
0
0
#HDR
-1
-1
#GR
nm
A
1.0
0.0
800.000000
-1.000000
601
8
1.878953
0.035351
#DATA
800.000000	0.040278
799.000000	0.040452
798.000000	0.040647
797.000000	0.040705
796.000000	0.040622
795.000000	0.040704
794.000000	0.040911
793.000000	0.040811
792.000000	0.041009
791.000000	0.041064
790.000000	0.041255
789.000000	0.041139
788.000000	0.041123
787.000000	0.041335
786.000000	0.041359
785.000000	0.041600
784.000000	0.041815
783.000000	0.041827
782.000000	0.041948
781.000000	0.042005
780.000000	0.042161
779.000000	0.042466
778.000000	0.042480
777.000000	0.042673
776.000000	0.042768
775.000000	0.043030
774.000000	0.043056
773.000000	0.043244
772.000000	0.043338
771.000000	0.043435
770.000000	0.043513
769.000000	0.043538
768.000000	0.043783
767.000000	0.043864
766.000000	0.043738
765.000000	0.043825
764.000000	0.043815
763.000000	0.043787
762.000000	0.043870
761.000000	0.043873
760.000000	0.043773
759.000000	0.043717
758.000000	0.043661
757.000000	0.043780
756.000000	0.043796
755.000000	0.043774
754.000000	0.043786
753.000000	0.043744
752.000000	0.043742
751.000000	0.043786
750.000000	0.043871
749.000000	0.043912
748.000000	0.043871
747.000000	0.043957
746.000000	0.043977
745.000000	0.043977
744.000000	0.043972
743.000000	0.044043
742.000000	0.043897
741.000000	0.043909
740.000000	0.043826
739.000000	0.043788
738.000000	0.043659
737.000000	0.043533
736.000000	0.043190
735.000000	0.042805
734.000000	0.042451
733.000000	0.042035
732.000000	0.041588
731.000000	0.041112
730.000000	0.040542
729.000000	0.040075
728.000000	0.039684
727.000000	0.039351
726.000000	0.039058
725.000000	0.038760
724.000000	0.038462
723.000000	0.038158
722.000000	0.037974
721.000000	0.037779
720.000000	0.037583
719.000000	0.037392
718.000000	0.037186
717.000000	0.037033
716.000000	0.036906
715.000000	0.036794
714.000000	0.036723
713.000000	0.036615
712.000000	0.036456
711.000000	0.036426
710.000000	0.036367
709.000000	0.036256
708.000000	0.036325
707.000000	0.036345
706.000000	0.036187
705.000000	0.036079
704.000000	0.035984
703.000000	0.035877
702.000000	0.035814
701.000000	0.035698
700.000000	0.035587
699.000000	0.035578
698.000000	0.035504
697.000000	0.035422
696.000000	0.035382
695.000000	0.035351
694.000000	0.035366
693.000000	0.035361
692.000000	0.035367
691.000000	0.035371
690.000000	0.035427
689.000000	0.035586
688.000000	0.035609
687.000000	0.035640
686.000000	0.035721
685.000000	0.035746
684.000000	0.035769
683.000000	0.035873
682.000000	0.035986
681.000000	0.036113
680.000000	0.036175
679.000000	0.036238
678.000000	0.036349
677.000000	0.036406
676.000000	0.036478
675.000000	0.036594
674.000000	0.036632
673.000000	0.036686
672.000000	0.036816
671.000000	0.036862
670.000000	0.036943
669.000000	0.037078
668.000000	0.037147
667.000000	0.037198
666.000000	0.037193
665.000000	0.037130
664.000000	0.037250
663.000000	0.037356
662.000000	0.037369
661.000000	0.037404
660.000000	0.037436
659.000000	0.037508
658.000000	0.037513
657.000000	0.037582
656.000000	0.037625
655.000000	0.037637
654.000000	0.037677
653.000000	0.037746
652.000000	0.037856
651.000000	0.037983
650.000000	0.038109
649.000000	0.038193
648.000000	0.038288
647.000000	0.038312
646.000000	0.038477
645.000000	0.038718
644.000000	0.038866
643.000000	0.038884
642.000000	0.039096
641.000000	0.039223
640.000000	0.039415
639.000000	0.039610
638.000000	0.039670
637.000000	0.039744
636.000000	0.039764
635.000000	0.040023
634.000000	0.040084
633.000000	0.040273
632.000000	0.040309
631.000000	0.040330
630.000000	0.040377
629.000000	0.040437
628.000000	0.040573
627.000000	0.040602
626.000000	0.040600
625.000000	0.040675
624.000000	0.040730
623.000000	0.040758
622.000000	0.040856
621.000000	0.040938
620.000000	0.041082
619.000000	0.041020
618.000000	0.041017
617.000000	0.041156
616.000000	0.041271
615.000000	0.041446
614.000000	0.041483
613.000000	0.041521
612.000000	0.041689
611.000000	0.041803
610.000000	0.041880
609.000000	0.042053
608.000000	0.042179
607.000000	0.042290
606.000000	0.042495
605.000000	0.042680
604.000000	0.042670
603.000000	0.042913
602.000000	0.043076
601.000000	0.043172
600.000000	0.043381
599.000000	0.043552
598.000000	0.043538
597.000000	0.043869
596.000000	0.043863
595.000000	0.044114
594.000000	0.044202
593.000000	0.044329
592.000000	0.044446
591.000000	0.044606
590.000000	0.044833
589.000000	0.044997
588.000000	0.045043
587.000000	0.045251
586.000000	0.045444
585.000000	0.045689
584.000000	0.045908
583.000000	0.046019
582.000000	0.046158
581.000000	0.046374
580.000000	0.046559
579.000000	0.046813
578.000000	0.046961
577.000000	0.047173
576.000000	0.047250
575.000000	0.047528
574.000000	0.047687
573.000000	0.047819
572.000000	0.048150
571.000000	0.048319
570.000000	0.048479
569.000000	0.048699
568.000000	0.048861
567.000000	0.049078
566.000000	0.049373
565.000000	0.049494
564.000000	0.049792
563.000000	0.049988
562.000000	0.050184
561.000000	0.050374
560.000000	0.050550
559.000000	0.050797
558.000000	0.051034
557.000000	0.051182
556.000000	0.051374
555.000000	0.051614
554.000000	0.051858
553.000000	0.052177
552.000000	0.052287
551.000000	0.052473
550.000000	0.052724
549.000000	0.052877
548.000000	0.053086
547.000000	0.053288
546.000000	0.053423
545.000000	0.053627
544.000000	0.053793
543.000000	0.054025
542.000000	0.054215
541.000000	0.054328
540.000000	0.054531
539.000000	0.054751
538.000000	0.054886
537.000000	0.055068
536.000000	0.055356
535.000000	0.055612
534.000000	0.055714
533.000000	0.055910
532.000000	0.056167
531.000000	0.056385
530.000000	0.056632
529.000000	0.057026
528.000000	0.057226
527.000000	0.057534
526.000000	0.057858
525.000000	0.058126
524.000000	0.058385
523.000000	0.058683
522.000000	0.058969
521.000000	0.059208
520.000000	0.059441
519.000000	0.059720
518.000000	0.060048
517.000000	0.060365
516.000000	0.060608
515.000000	0.060943
514.000000	0.061235
513.000000	0.061515
512.000000	0.061932
511.000000	0.062343
510.000000	0.062619
509.000000	0.062910
508.000000	0.063206
507.000000	0.063610
506.000000	0.064013
505.000000	0.064393
504.000000	0.064714
503.000000	0.065079
502.000000	0.065417
501.000000	0.065816
500.000000	0.066318
499.000000	0.066736
498.000000	0.067064
497.000000	0.067488
496.000000	0.067906
495.000000	0.068408
494.000000	0.068900
493.000000	0.069345
492.000000	0.069793
491.000000	0.070195
490.000000	0.070635
489.000000	0.071107
488.000000	0.071559
487.000000	0.072033
486.000000	0.072585
485.000000	0.073052
484.000000	0.073431
483.000000	0.073913
482.000000	0.074516
481.000000	0.075021
480.000000	0.075387
479.000000	0.075870
478.000000	0.076418
477.000000	0.076947
476.000000	0.077508
475.000000	0.078070
474.000000	0.078608
473.000000	0.079136
472.000000	0.079707
471.000000	0.080288
470.000000	0.080958
469.000000	0.081537
468.000000	0.082115
467.000000	0.082723
466.000000	0.083332
465.000000	0.083976
464.000000	0.084698
463.000000	0.085398
462.000000	0.086043
461.000000	0.086714
460.000000	0.087443
459.000000	0.088070
458.000000	0.088871
457.000000	0.089626
456.000000	0.090359
455.000000	0.091054
454.000000	0.091790
453.000000	0.092640
452.000000	0.093413
451.000000	0.094142
450.000000	0.094928
449.000000	0.095804
448.000000	0.096642
447.000000	0.097481
446.000000	0.098511
445.000000	0.099429
444.000000	0.100271
443.000000	0.101201
442.000000	0.102172
441.000000	0.103132
440.000000	0.104128
439.000000	0.105133
438.000000	0.106182
437.000000	0.107209
436.000000	0.108248
435.000000	0.109349
434.000000	0.110486
433.000000	0.111483
432.000000	0.112642
431.000000	0.113836
430.000000	0.115037
429.000000	0.116229
428.000000	0.117478
427.000000	0.118772
426.000000	0.119961
425.000000	0.121281
424.000000	0.122585
423.000000	0.123909
422.000000	0.125192
421.000000	0.126575
420.000000	0.128001
419.000000	0.129375
418.000000	0.130777
417.000000	0.132284
416.000000	0.133903
415.000000	0.135280
414.000000	0.136945
413.000000	0.138586
412.000000	0.140193
411.000000	0.141844
410.000000	0.143637
409.000000	0.145376
408.000000	0.147068
407.000000	0.149022
406.000000	0.150826
405.000000	0.152772
404.000000	0.154615
403.000000	0.156454
402.000000	0.158567
401.000000	0.160626
400.000000	0.162624
399.000000	0.164866
398.000000	0.167095
397.000000	0.169292
396.000000	0.171541
395.000000	0.173836
394.000000	0.176277
393.000000	0.178608
392.000000	0.181262
391.000000	0.183765
390.000000	0.186389
389.000000	0.188925
388.000000	0.191758
387.000000	0.194391
386.000000	0.197199
385.000000	0.199984
384.000000	0.202938
383.000000	0.205890
382.000000	0.208688
381.000000	0.211786
380.000000	0.215164
379.000000	0.218089
378.000000	0.221812
377.000000	0.224903
376.000000	0.228321
375.000000	0.231645
374.000000	0.235165
373.000000	0.238710
372.000000	0.242296
371.000000	0.245938
370.000000	0.249746
369.000000	0.253417
368.000000	0.257074
367.000000	0.260860
366.000000	0.264813
365.000000	0.268731
364.000000	0.272572
363.000000	0.276681
362.000000	0.280663
361.000000	0.284655
360.000000	0.288881
359.000000	0.293223
358.000000	0.297524
357.000000	0.301666
356.000000	0.306049
355.000000	0.310583
354.000000	0.314948
353.000000	0.319389
352.000000	0.323983
351.000000	0.328445
350.000000	0.333007
349.000000	0.337609
348.000000	0.342296
347.000000	0.346922
346.000000	0.351578
345.000000	0.356257
344.000000	0.360757
343.000000	0.365516
342.000000	0.370323
341.000000	0.375313
340.000000	0.380218
339.000000	0.385078
338.000000	0.389981
337.000000	0.395213
336.000000	0.400169
335.000000	0.405181
334.000000	0.410416
333.000000	0.415665
332.000000	0.420854
331.000000	0.426117
330.000000	0.431428
329.000000	0.436775
328.000000	0.442154
327.000000	0.447568
326.000000	0.453075
325.000000	0.458460
324.000000	0.464092
323.000000	0.469830
322.000000	0.475585
321.000000	0.481383
320.000000	0.487258
319.000000	0.493263
318.000000	0.499225
317.000000	0.505065
316.000000	0.511282
315.000000	0.517446
314.000000	0.523593
313.000000	0.530127
312.000000	0.536631
311.000000	0.543232
310.000000	0.549893
309.000000	0.556564
308.000000	0.563168
307.000000	0.570040
306.000000	0.576861
305.000000	0.583763
304.000000	0.590892
303.000000	0.598128
302.000000	0.605397
301.000000	0.612663
300.000000	0.619861
299.000000	0.627129
298.000000	0.634284
297.000000	0.641676
296.000000	0.649332
295.000000	0.656984
294.000000	0.664570
293.000000	0.672387
292.000000	0.680353
291.000000	0.688336
290.000000	0.696377
289.000000	0.704522
288.000000	0.712764
287.000000	0.721090
286.000000	0.729522
285.000000	0.738066
284.000000	0.746676
283.000000	0.755184
282.000000	0.763760
281.000000	0.772459
280.000000	0.781092
279.000000	0.789694
278.000000	0.798422
277.000000	0.807336
276.000000	0.816295
275.000000	0.825260
274.000000	0.834489
273.000000	0.843667
272.000000	0.852720
271.000000	0.861797
270.000000	0.870955
269.000000	0.879917
268.000000	0.888624
267.000000	0.897470
266.000000	0.906331
265.000000	0.914871
264.000000	0.923195
263.000000	0.931214
262.000000	0.939108
261.000000	0.946893
260.000000	0.954628
259.000000	0.962236
258.000000	0.969664
257.000000	0.976801
256.000000	0.984159
255.000000	0.991545
254.000000	0.998831
253.000000	1.006322
252.000000	1.014044
251.000000	1.021937
250.000000	1.029910
249.000000	1.038394
248.000000	1.047356
247.000000	1.056646
246.000000	1.066472
245.000000	1.076945
244.000000	1.088071
243.000000	1.099656
242.000000	1.111795
241.000000	1.124705
240.000000	1.137633
239.000000	1.151243
238.000000	1.165189
237.000000	1.179970
236.000000	1.194974
235.000000	1.210366
234.000000	1.226435
233.000000	1.242790
232.000000	1.259164
231.000000	1.275878
230.000000	1.292865
229.000000	1.309891
228.000000	1.326754
227.000000	1.344035
226.000000	1.361343
225.000000	1.378785
224.000000	1.396692
223.000000	1.414926
222.000000	1.433330
221.000000	1.452223
220.000000	1.471386
219.000000	1.491287
218.000000	1.511398
217.000000	1.532161
216.000000	1.553637
215.000000	1.575236
214.000000	1.597065
213.000000	1.619296
212.000000	1.641663
211.000000	1.663041
210.000000	1.684905
209.000000	1.706429
208.000000	1.726310
207.000000	1.746620
206.000000	1.765697
205.000000	1.784950
204.000000	1.803440
203.000000	1.820694
202.000000	1.839767
201.000000	1.859300
200.000000	1.878953
