PE UV       SUBTECH     SPECTRUM    ASCII       PEDS        4.00        
   -1
KI5-01B_1CM.Sample.Raw.asc
11/08/25
12:22:49.00
11/08/25
12:22:49.00
Hermanni Kaartokallio

200.000000
1
Lambda 650
650N8121101
PerkinElmer UV WinLab 6.0.2.0723 / 1.61.00 Lambda 650

0
0
2
0
0
UV/VIS
1
1
1
uv/vis/nir detector
0
0
0
0
Fix
 
0
0.24
0
0
0
 
 
 
0
 
0
319.2
0
Front
100
 
 
 
0
0
0
 
0
 
 
 
0
 
 
0
0
0
0
0
 
 
 
 
0
0
#HDR
-1
-1
#GR
nm
A
1.0
0.0
800.000000
-1.000000
601
8
1.671333
0.033435
#DATA
800.000000	0.039654
799.000000	0.039771
798.000000	0.039927
797.000000	0.039979
796.000000	0.039901
795.000000	0.040038
794.000000	0.040175
793.000000	0.040044
792.000000	0.040319
791.000000	0.040419
790.000000	0.040420
789.000000	0.040351
788.000000	0.040473
787.000000	0.040645
786.000000	0.040799
785.000000	0.040936
784.000000	0.041124
783.000000	0.041093
782.000000	0.041169
781.000000	0.041292
780.000000	0.041449
779.000000	0.041732
778.000000	0.041767
777.000000	0.041939
776.000000	0.042065
775.000000	0.042259
774.000000	0.042358
773.000000	0.042461
772.000000	0.042450
771.000000	0.042630
770.000000	0.042880
769.000000	0.042754
768.000000	0.042948
767.000000	0.043040
766.000000	0.042897
765.000000	0.042997
764.000000	0.042974
763.000000	0.042995
762.000000	0.043064
761.000000	0.043093
760.000000	0.042902
759.000000	0.042849
758.000000	0.042740
757.000000	0.042857
756.000000	0.042914
755.000000	0.042916
754.000000	0.042896
753.000000	0.042843
752.000000	0.042916
751.000000	0.042877
750.000000	0.042832
749.000000	0.042870
748.000000	0.042847
747.000000	0.042843
746.000000	0.042903
745.000000	0.042936
744.000000	0.042905
743.000000	0.042895
742.000000	0.042815
741.000000	0.042831
740.000000	0.042710
739.000000	0.042596
738.000000	0.042506
737.000000	0.042387
736.000000	0.042075
735.000000	0.041657
734.000000	0.041304
733.000000	0.040915
732.000000	0.040486
731.000000	0.039954
730.000000	0.039380
729.000000	0.038937
728.000000	0.038515
727.000000	0.038170
726.000000	0.037957
725.000000	0.037644
724.000000	0.037300
723.000000	0.037017
722.000000	0.036756
721.000000	0.036491
720.000000	0.036357
719.000000	0.036164
718.000000	0.035882
717.000000	0.035767
716.000000	0.035644
715.000000	0.035511
714.000000	0.035410
713.000000	0.035272
712.000000	0.035136
711.000000	0.035028
710.000000	0.034917
709.000000	0.034887
708.000000	0.034926
707.000000	0.034872
706.000000	0.034706
705.000000	0.034588
704.000000	0.034473
703.000000	0.034350
702.000000	0.034223
701.000000	0.034076
700.000000	0.033911
699.000000	0.033846
698.000000	0.033789
697.000000	0.033720
696.000000	0.033625
695.000000	0.033541
694.000000	0.033537
693.000000	0.033468
692.000000	0.033435
691.000000	0.033500
690.000000	0.033539
689.000000	0.033592
688.000000	0.033555
687.000000	0.033566
686.000000	0.033614
685.000000	0.033605
684.000000	0.033632
683.000000	0.033700
682.000000	0.033764
681.000000	0.033848
680.000000	0.033893
679.000000	0.033898
678.000000	0.033982
677.000000	0.034050
676.000000	0.034051
675.000000	0.034096
674.000000	0.034134
673.000000	0.034183
672.000000	0.034263
671.000000	0.034288
670.000000	0.034325
669.000000	0.034436
668.000000	0.034416
667.000000	0.034408
666.000000	0.034423
665.000000	0.034343
664.000000	0.034332
663.000000	0.034434
662.000000	0.034477
661.000000	0.034458
660.000000	0.034472
659.000000	0.034491
658.000000	0.034478
657.000000	0.034474
656.000000	0.034459
655.000000	0.034504
654.000000	0.034523
653.000000	0.034513
652.000000	0.034600
651.000000	0.034684
650.000000	0.034693
649.000000	0.034723
648.000000	0.034907
647.000000	0.034911
646.000000	0.035061
645.000000	0.035157
644.000000	0.035285
643.000000	0.035266
642.000000	0.035304
641.000000	0.035427
640.000000	0.035690
639.000000	0.035769
638.000000	0.035766
637.000000	0.035840
636.000000	0.035808
635.000000	0.035972
634.000000	0.036003
633.000000	0.036203
632.000000	0.036125
631.000000	0.036110
630.000000	0.036206
629.000000	0.036195
628.000000	0.036233
627.000000	0.036233
626.000000	0.036228
625.000000	0.036176
624.000000	0.036138
623.000000	0.036161
622.000000	0.036280
621.000000	0.036220
620.000000	0.036305
619.000000	0.036221
618.000000	0.036275
617.000000	0.036271
616.000000	0.036381
615.000000	0.036519
614.000000	0.036451
613.000000	0.036345
612.000000	0.036507
611.000000	0.036618
610.000000	0.036686
609.000000	0.036769
608.000000	0.036765
607.000000	0.036881
606.000000	0.036948
605.000000	0.037044
604.000000	0.037153
603.000000	0.037238
602.000000	0.037167
601.000000	0.037295
600.000000	0.037445
599.000000	0.037478
598.000000	0.037530
597.000000	0.037735
596.000000	0.037669
595.000000	0.037769
594.000000	0.037789
593.000000	0.037943
592.000000	0.037944
591.000000	0.038097
590.000000	0.038219
589.000000	0.038313
588.000000	0.038234
587.000000	0.038362
586.000000	0.038529
585.000000	0.038695
584.000000	0.038790
583.000000	0.038862
582.000000	0.038901
581.000000	0.039042
580.000000	0.039160
579.000000	0.039241
578.000000	0.039328
577.000000	0.039372
576.000000	0.039458
575.000000	0.039651
574.000000	0.039708
573.000000	0.039755
572.000000	0.040040
571.000000	0.040032
570.000000	0.040054
569.000000	0.040261
568.000000	0.040345
567.000000	0.040506
566.000000	0.040607
565.000000	0.040661
564.000000	0.040816
563.000000	0.040918
562.000000	0.040984
561.000000	0.041084
560.000000	0.041210
559.000000	0.041292
558.000000	0.041403
557.000000	0.041486
556.000000	0.041542
555.000000	0.041663
554.000000	0.041779
553.000000	0.041912
552.000000	0.041941
551.000000	0.042003
550.000000	0.042239
549.000000	0.042218
548.000000	0.042225
547.000000	0.042319
546.000000	0.042351
545.000000	0.042403
544.000000	0.042422
543.000000	0.042521
542.000000	0.042671
541.000000	0.042640
540.000000	0.042682
539.000000	0.042787
538.000000	0.042733
537.000000	0.042786
536.000000	0.042958
535.000000	0.043017
534.000000	0.042951
533.000000	0.043001
532.000000	0.043115
531.000000	0.043114
530.000000	0.043147
529.000000	0.043286
528.000000	0.043239
527.000000	0.043281
526.000000	0.043413
525.000000	0.043549
524.000000	0.043621
523.000000	0.043636
522.000000	0.043751
521.000000	0.043880
520.000000	0.043904
519.000000	0.043991
518.000000	0.044205
517.000000	0.044280
516.000000	0.044298
515.000000	0.044399
514.000000	0.044500
513.000000	0.044593
512.000000	0.044781
511.000000	0.045016
510.000000	0.045079
509.000000	0.045152
508.000000	0.045227
507.000000	0.045404
506.000000	0.045610
505.000000	0.045752
504.000000	0.045885
503.000000	0.046068
502.000000	0.046124
501.000000	0.046261
500.000000	0.046532
499.000000	0.046698
498.000000	0.046777
497.000000	0.046938
496.000000	0.047205
495.000000	0.047423
494.000000	0.047585
493.000000	0.047813
492.000000	0.047982
491.000000	0.048112
490.000000	0.048331
489.000000	0.048633
488.000000	0.048851
487.000000	0.048963
486.000000	0.049203
485.000000	0.049487
484.000000	0.049640
483.000000	0.049821
482.000000	0.050152
481.000000	0.050386
480.000000	0.050470
479.000000	0.050663
478.000000	0.050919
477.000000	0.051121
476.000000	0.051331
475.000000	0.051597
474.000000	0.051828
473.000000	0.052057
472.000000	0.052287
471.000000	0.052529
470.000000	0.052833
469.000000	0.053056
468.000000	0.053286
467.000000	0.053589
466.000000	0.053864
465.000000	0.054138
464.000000	0.054511
463.000000	0.054881
462.000000	0.055058
461.000000	0.055297
460.000000	0.055683
459.000000	0.055950
458.000000	0.056256
457.000000	0.056566
456.000000	0.056904
455.000000	0.057211
454.000000	0.057501
453.000000	0.057822
452.000000	0.058164
451.000000	0.058331
450.000000	0.058586
449.000000	0.059060
448.000000	0.059323
447.000000	0.059604
446.000000	0.060064
445.000000	0.060471
444.000000	0.060728
443.000000	0.061009
442.000000	0.061451
441.000000	0.061812
440.000000	0.062143
439.000000	0.062517
438.000000	0.062896
437.000000	0.063221
436.000000	0.063493
435.000000	0.063908
434.000000	0.064473
433.000000	0.064701
432.000000	0.064966
431.000000	0.065395
430.000000	0.065831
429.000000	0.066168
428.000000	0.066619
427.000000	0.067071
426.000000	0.067386
425.000000	0.067813
424.000000	0.068271
423.000000	0.068779
422.000000	0.069100
421.000000	0.069454
420.000000	0.070040
419.000000	0.070440
418.000000	0.070743
417.000000	0.071285
416.000000	0.071955
415.000000	0.072236
414.000000	0.072734
413.000000	0.073387
412.000000	0.073928
411.000000	0.074383
410.000000	0.075008
409.000000	0.075622
408.000000	0.076121
407.000000	0.076660
406.000000	0.077380
405.000000	0.078048
404.000000	0.078664
403.000000	0.079260
402.000000	0.079956
401.000000	0.080702
400.000000	0.081264
399.000000	0.082007
398.000000	0.082915
397.000000	0.083497
396.000000	0.084165
395.000000	0.084954
394.000000	0.085748
393.000000	0.086469
392.000000	0.087276
391.000000	0.088175
390.000000	0.089047
389.000000	0.089766
388.000000	0.090741
387.000000	0.091600
386.000000	0.092482
385.000000	0.093286
384.000000	0.094209
383.000000	0.095219
382.000000	0.095954
381.000000	0.096956
380.000000	0.098147
379.000000	0.099062
378.000000	0.100258
377.000000	0.101267
376.000000	0.102278
375.000000	0.103220
374.000000	0.104363
373.000000	0.105613
372.000000	0.106653
371.000000	0.107760
370.000000	0.109011
369.000000	0.110237
368.000000	0.111362
367.000000	0.112512
366.000000	0.113873
365.000000	0.115127
364.000000	0.116272
363.000000	0.117670
362.000000	0.119000
361.000000	0.120253
360.000000	0.121552
359.000000	0.123096
358.000000	0.124392
357.000000	0.125691
356.000000	0.127067
355.000000	0.128712
354.000000	0.130110
353.000000	0.131608
352.000000	0.133138
351.000000	0.134589
350.000000	0.135989
349.000000	0.137477
348.000000	0.139192
347.000000	0.140676
346.000000	0.142175
345.000000	0.143749
344.000000	0.145450
343.000000	0.146946
342.000000	0.148462
341.000000	0.150264
340.000000	0.151902
339.000000	0.153523
338.000000	0.155115
337.000000	0.156951
336.000000	0.158659
335.000000	0.160277
334.000000	0.162176
333.000000	0.163962
332.000000	0.165681
331.000000	0.167482
330.000000	0.169352
329.000000	0.171280
328.000000	0.173107
327.000000	0.174890
326.000000	0.176901
325.000000	0.178750
324.000000	0.180625
323.000000	0.182640
322.000000	0.184582
321.000000	0.186651
320.000000	0.188711
319.000000	0.190967
318.000000	0.193058
317.000000	0.195162
316.000000	0.197404
315.000000	0.199612
314.000000	0.201715
313.000000	0.204173
312.000000	0.206542
311.000000	0.208913
310.000000	0.211441
309.000000	0.213862
308.000000	0.216218
307.000000	0.218725
306.000000	0.221368
305.000000	0.223985
304.000000	0.226489
303.000000	0.229209
302.000000	0.231993
301.000000	0.234684
300.000000	0.237372
299.000000	0.240292
298.000000	0.243217
297.000000	0.245932
296.000000	0.248888
295.000000	0.251960
294.000000	0.254966
293.000000	0.258036
292.000000	0.261249
291.000000	0.264408
290.000000	0.267551
289.000000	0.270812
288.000000	0.274031
287.000000	0.277367
286.000000	0.280750
285.000000	0.284125
284.000000	0.287721
283.000000	0.291229
282.000000	0.294652
281.000000	0.298237
280.000000	0.301798
279.000000	0.305157
278.000000	0.308559
277.000000	0.312217
276.000000	0.315834
275.000000	0.319383
274.000000	0.323149
273.000000	0.326939
272.000000	0.330439
271.000000	0.333974
270.000000	0.337747
269.000000	0.341324
268.000000	0.344807
267.000000	0.348380
266.000000	0.351976
265.000000	0.355359
264.000000	0.358504
263.000000	0.361683
262.000000	0.365036
261.000000	0.367921
260.000000	0.370717
259.000000	0.373669
258.000000	0.376573
257.000000	0.379473
256.000000	0.382450
255.000000	0.385294
254.000000	0.387988
253.000000	0.390804
252.000000	0.393884
251.000000	0.396934
250.000000	0.399967
249.000000	0.403091
248.000000	0.406561
247.000000	0.410063
246.000000	0.413592
245.000000	0.417584
244.000000	0.421881
243.000000	0.426245
242.000000	0.430734
241.000000	0.435608
240.000000	0.440659
239.000000	0.445891
238.000000	0.451450
237.000000	0.457169
236.000000	0.463005
235.000000	0.469143
234.000000	0.475558
233.000000	0.482008
232.000000	0.488720
231.000000	0.495651
230.000000	0.502670
229.000000	0.509924
228.000000	0.516961
227.000000	0.524495
226.000000	0.532189
225.000000	0.539916
224.000000	0.548126
223.000000	0.556917
222.000000	0.566228
221.000000	0.575833
220.000000	0.586302
219.000000	0.597591
218.000000	0.609825
217.000000	0.623502
216.000000	0.638790
215.000000	0.655849
214.000000	0.674826
213.000000	0.696757
212.000000	0.721227
211.000000	0.749272
210.000000	0.781192
209.000000	0.817048
208.000000	0.858174
207.000000	0.905498
206.000000	0.960355
205.000000	1.024938
204.000000	1.102545
203.000000	1.197513
202.000000	1.316689
201.000000	1.470946
200.000000	1.671333
