PE UV       SUBTECH     SPECTRUM    ASCII       PEDS        4.00        
   -1
KY5-04A_1CM.Sample.Raw.asc
11/08/25
10:06:03.00
11/08/25
10:06:03.00
Hermanni Kaartokallio

200.000000
1
Lambda 650
650N8121101
PerkinElmer UV WinLab 6.0.2.0723 / 1.61.00 Lambda 650

0
0
2
0
0
UV/VIS
1
1
1
uv/vis/nir detector
0
0
0
0
Fix
 
0
0.24
0
0
0
 
 
 
0
 
0
319.2
0
Front
100
 
 
 
0
0
0
 
0
 
 
 
0
 
 
0
0
0
0
0
 
 
 
 
0
0
#HDR
-1
-1
#GR
nm
A
1.0
0.0
800.000000
-1.000000
601
8
1.939125
0.032580
#DATA
800.000000	0.040431
799.000000	0.040588
798.000000	0.040657
797.000000	0.040673
796.000000	0.040755
795.000000	0.040831
794.000000	0.040964
793.000000	0.040839
792.000000	0.040992
791.000000	0.041145
790.000000	0.041261
789.000000	0.041303
788.000000	0.041452
787.000000	0.041549
786.000000	0.041644
785.000000	0.041777
784.000000	0.042032
783.000000	0.042007
782.000000	0.042018
781.000000	0.042116
780.000000	0.042403
779.000000	0.042474
778.000000	0.042684
777.000000	0.042892
776.000000	0.043027
775.000000	0.043129
774.000000	0.043215
773.000000	0.043305
772.000000	0.043460
771.000000	0.043646
770.000000	0.043846
769.000000	0.043755
768.000000	0.043767
767.000000	0.043890
766.000000	0.043971
765.000000	0.043937
764.000000	0.043854
763.000000	0.043876
762.000000	0.043876
761.000000	0.043823
760.000000	0.043694
759.000000	0.043679
758.000000	0.043567
757.000000	0.043648
756.000000	0.043606
755.000000	0.043603
754.000000	0.043648
753.000000	0.043535
752.000000	0.043615
751.000000	0.043545
750.000000	0.043422
749.000000	0.043478
748.000000	0.043591
747.000000	0.043499
746.000000	0.043507
745.000000	0.043468
744.000000	0.043318
743.000000	0.043324
742.000000	0.043357
741.000000	0.043321
740.000000	0.043140
739.000000	0.042945
738.000000	0.042715
737.000000	0.042582
736.000000	0.042227
735.000000	0.041793
734.000000	0.041493
733.000000	0.041069
732.000000	0.040481
731.000000	0.039931
730.000000	0.039451
729.000000	0.038972
728.000000	0.038474
727.000000	0.038088
726.000000	0.037796
725.000000	0.037471
724.000000	0.037186
723.000000	0.036915
722.000000	0.036654
721.000000	0.036295
720.000000	0.036036
719.000000	0.035875
718.000000	0.035680
717.000000	0.035523
716.000000	0.035446
715.000000	0.035283
714.000000	0.035080
713.000000	0.034971
712.000000	0.034883
711.000000	0.034765
710.000000	0.034637
709.000000	0.034508
708.000000	0.034502
707.000000	0.034477
706.000000	0.034365
705.000000	0.034321
704.000000	0.034239
703.000000	0.034045
702.000000	0.033855
701.000000	0.033731
700.000000	0.033610
699.000000	0.033538
698.000000	0.033481
697.000000	0.033415
696.000000	0.033305
695.000000	0.033251
694.000000	0.033310
693.000000	0.033237
692.000000	0.033170
691.000000	0.033153
690.000000	0.033129
689.000000	0.033149
688.000000	0.033113
687.000000	0.033100
686.000000	0.033118
685.000000	0.033107
684.000000	0.033119
683.000000	0.033174
682.000000	0.033119
681.000000	0.033147
680.000000	0.033177
679.000000	0.033168
678.000000	0.033192
677.000000	0.033253
676.000000	0.033224
675.000000	0.033142
674.000000	0.033167
673.000000	0.033233
672.000000	0.033275
671.000000	0.033213
670.000000	0.033126
669.000000	0.033164
668.000000	0.033170
667.000000	0.033163
666.000000	0.033133
665.000000	0.033029
664.000000	0.032975
663.000000	0.032988
662.000000	0.033043
661.000000	0.032969
660.000000	0.032885
659.000000	0.032868
658.000000	0.032754
657.000000	0.032720
656.000000	0.032722
655.000000	0.032741
654.000000	0.032723
653.000000	0.032615
652.000000	0.032580
651.000000	0.032670
650.000000	0.032762
649.000000	0.032721
648.000000	0.032784
647.000000	0.032796
646.000000	0.032768
645.000000	0.032879
644.000000	0.033065
643.000000	0.033058
642.000000	0.033074
641.000000	0.033160
640.000000	0.033304
639.000000	0.033323
638.000000	0.033368
637.000000	0.033396
636.000000	0.033389
635.000000	0.033451
634.000000	0.033418
633.000000	0.033531
632.000000	0.033467
631.000000	0.033488
630.000000	0.033462
629.000000	0.033489
628.000000	0.033425
627.000000	0.033364
626.000000	0.033488
625.000000	0.033505
624.000000	0.033432
623.000000	0.033427
622.000000	0.033458
621.000000	0.033374
620.000000	0.033443
619.000000	0.033397
618.000000	0.033474
617.000000	0.033448
616.000000	0.033330
615.000000	0.033509
614.000000	0.033489
613.000000	0.033390
612.000000	0.033501
611.000000	0.033580
610.000000	0.033525
609.000000	0.033572
608.000000	0.033599
607.000000	0.033679
606.000000	0.033693
605.000000	0.033772
604.000000	0.033736
603.000000	0.033759
602.000000	0.033802
601.000000	0.033836
600.000000	0.033904
599.000000	0.033928
598.000000	0.033745
597.000000	0.033944
596.000000	0.033978
595.000000	0.033942
594.000000	0.033911
593.000000	0.034022
592.000000	0.034015
591.000000	0.033915
590.000000	0.034014
589.000000	0.034107
588.000000	0.034048
587.000000	0.034131
586.000000	0.034275
585.000000	0.034270
584.000000	0.034263
583.000000	0.034351
582.000000	0.034425
581.000000	0.034456
580.000000	0.034458
579.000000	0.034505
578.000000	0.034620
577.000000	0.034711
576.000000	0.034730
575.000000	0.034886
574.000000	0.034833
573.000000	0.034788
572.000000	0.034989
571.000000	0.035032
570.000000	0.035047
569.000000	0.035117
568.000000	0.035216
567.000000	0.035196
566.000000	0.035255
565.000000	0.035288
564.000000	0.035471
563.000000	0.035465
562.000000	0.035481
561.000000	0.035581
560.000000	0.035584
559.000000	0.035552
558.000000	0.035724
557.000000	0.035759
556.000000	0.035779
555.000000	0.035784
554.000000	0.035833
553.000000	0.035937
552.000000	0.035990
551.000000	0.035970
550.000000	0.036061
549.000000	0.036056
548.000000	0.035928
547.000000	0.036038
546.000000	0.036095
545.000000	0.036043
544.000000	0.036026
543.000000	0.036102
542.000000	0.036069
541.000000	0.036076
540.000000	0.036123
539.000000	0.036122
538.000000	0.036091
537.000000	0.036050
536.000000	0.036062
535.000000	0.036145
534.000000	0.036086
533.000000	0.036087
532.000000	0.036154
531.000000	0.036132
530.000000	0.035978
529.000000	0.036029
528.000000	0.035998
527.000000	0.036020
526.000000	0.036063
525.000000	0.036077
524.000000	0.036009
523.000000	0.035993
522.000000	0.036127
521.000000	0.036144
520.000000	0.036056
519.000000	0.036003
518.000000	0.036050
517.000000	0.036112
516.000000	0.036112
515.000000	0.036107
514.000000	0.036111
513.000000	0.036135
512.000000	0.036187
511.000000	0.036331
510.000000	0.036336
509.000000	0.036358
508.000000	0.036312
507.000000	0.036230
506.000000	0.036275
505.000000	0.036371
504.000000	0.036442
503.000000	0.036508
502.000000	0.036525
501.000000	0.036566
500.000000	0.036659
499.000000	0.036761
498.000000	0.036806
497.000000	0.036848
496.000000	0.036963
495.000000	0.037041
494.000000	0.037091
493.000000	0.037228
492.000000	0.037310
491.000000	0.037354
490.000000	0.037459
489.000000	0.037536
488.000000	0.037574
487.000000	0.037686
486.000000	0.037864
485.000000	0.038000
484.000000	0.038057
483.000000	0.038125
482.000000	0.038278
481.000000	0.038395
480.000000	0.038405
479.000000	0.038474
478.000000	0.038637
477.000000	0.038710
476.000000	0.038744
475.000000	0.038867
474.000000	0.039011
473.000000	0.039170
472.000000	0.039307
471.000000	0.039385
470.000000	0.039528
469.000000	0.039663
468.000000	0.039828
467.000000	0.039974
466.000000	0.040090
465.000000	0.040162
464.000000	0.040384
463.000000	0.040616
462.000000	0.040683
461.000000	0.040825
460.000000	0.041034
459.000000	0.041094
458.000000	0.041256
457.000000	0.041469
456.000000	0.041666
455.000000	0.041806
454.000000	0.041930
453.000000	0.042083
452.000000	0.042234
451.000000	0.042336
450.000000	0.042443
449.000000	0.042674
448.000000	0.042832
447.000000	0.042870
446.000000	0.043149
445.000000	0.043384
444.000000	0.043483
443.000000	0.043606
442.000000	0.043788
441.000000	0.043780
440.000000	0.043972
439.000000	0.044190
438.000000	0.044369
437.000000	0.044470
436.000000	0.044497
435.000000	0.044606
434.000000	0.044885
433.000000	0.044934
432.000000	0.045091
431.000000	0.045260
430.000000	0.045411
429.000000	0.045551
428.000000	0.045715
427.000000	0.045864
426.000000	0.045900
425.000000	0.046038
424.000000	0.046250
423.000000	0.046374
422.000000	0.046399
421.000000	0.046548
420.000000	0.046781
419.000000	0.046843
418.000000	0.046973
417.000000	0.047090
416.000000	0.047360
415.000000	0.047437
414.000000	0.047656
413.000000	0.047921
412.000000	0.048128
411.000000	0.048232
410.000000	0.048445
409.000000	0.048826
408.000000	0.048977
407.000000	0.049197
406.000000	0.049465
405.000000	0.049666
404.000000	0.049864
403.000000	0.050153
402.000000	0.050544
401.000000	0.050792
400.000000	0.051051
399.000000	0.051296
398.000000	0.051631
397.000000	0.051924
396.000000	0.052208
395.000000	0.052504
394.000000	0.052816
393.000000	0.053071
392.000000	0.053414
391.000000	0.053883
390.000000	0.054200
389.000000	0.054521
388.000000	0.054911
387.000000	0.055191
386.000000	0.055601
385.000000	0.056010
384.000000	0.056388
383.000000	0.056745
382.000000	0.057099
381.000000	0.057359
380.000000	0.058093
379.000000	0.058402
378.000000	0.058892
377.000000	0.059232
376.000000	0.059736
375.000000	0.060190
374.000000	0.060656
373.000000	0.061297
372.000000	0.061699
371.000000	0.062069
370.000000	0.062699
369.000000	0.063289
368.000000	0.063853
367.000000	0.064367
366.000000	0.064892
365.000000	0.065380
364.000000	0.065881
363.000000	0.066626
362.000000	0.067274
361.000000	0.067790
360.000000	0.068419
359.000000	0.069094
358.000000	0.069622
357.000000	0.070165
356.000000	0.070917
355.000000	0.071673
354.000000	0.072264
353.000000	0.072855
352.000000	0.073619
351.000000	0.074344
350.000000	0.074960
349.000000	0.075695
348.000000	0.076539
347.000000	0.077034
346.000000	0.077772
345.000000	0.078673
344.000000	0.079480
343.000000	0.080069
342.000000	0.080809
341.000000	0.081601
340.000000	0.082429
339.000000	0.083181
338.000000	0.083940
337.000000	0.084929
336.000000	0.085736
335.000000	0.086418
334.000000	0.087430
333.000000	0.088437
332.000000	0.089199
331.000000	0.090014
330.000000	0.090928
329.000000	0.091833
328.000000	0.092811
327.000000	0.093751
326.000000	0.094732
325.000000	0.095586
324.000000	0.096580
323.000000	0.097525
322.000000	0.098636
321.000000	0.099717
320.000000	0.100740
319.000000	0.101926
318.000000	0.102943
317.000000	0.103980
316.000000	0.105072
315.000000	0.106235
314.000000	0.107383
313.000000	0.108710
312.000000	0.109922
311.000000	0.111163
310.000000	0.112488
309.000000	0.113798
308.000000	0.114978
307.000000	0.116300
306.000000	0.117718
305.000000	0.119145
304.000000	0.120501
303.000000	0.122108
302.000000	0.123740
301.000000	0.125190
300.000000	0.126587
299.000000	0.128200
298.000000	0.129798
297.000000	0.131486
296.000000	0.133355
295.000000	0.135137
294.000000	0.136783
293.000000	0.138616
292.000000	0.140585
291.000000	0.142594
290.000000	0.144492
289.000000	0.146447
288.000000	0.148528
287.000000	0.150537
286.000000	0.152527
285.000000	0.154677
284.000000	0.156924
283.000000	0.158968
282.000000	0.161025
281.000000	0.163215
280.000000	0.165319
279.000000	0.167337
278.000000	0.169439
277.000000	0.171617
276.000000	0.173776
275.000000	0.175925
274.000000	0.178293
273.000000	0.180565
272.000000	0.182571
271.000000	0.184732
270.000000	0.186983
269.000000	0.189014
268.000000	0.191095
267.000000	0.193356
266.000000	0.195363
265.000000	0.197255
264.000000	0.199227
263.000000	0.201132
262.000000	0.203018
261.000000	0.204792
260.000000	0.206612
259.000000	0.208438
258.000000	0.210215
257.000000	0.211813
256.000000	0.213518
255.000000	0.215191
254.000000	0.216768
253.000000	0.218438
252.000000	0.220267
251.000000	0.221900
250.000000	0.223531
249.000000	0.225443
248.000000	0.227533
247.000000	0.229536
246.000000	0.231474
245.000000	0.233790
244.000000	0.236284
243.000000	0.238795
242.000000	0.241430
241.000000	0.244327
240.000000	0.247380
239.000000	0.250480
238.000000	0.253759
237.000000	0.257374
236.000000	0.260885
235.000000	0.264783
234.000000	0.268871
233.000000	0.272939
232.000000	0.277285
231.000000	0.281944
230.000000	0.286719
229.000000	0.291699
228.000000	0.296718
227.000000	0.302173
226.000000	0.307941
225.000000	0.314095
224.000000	0.320804
223.000000	0.328201
222.000000	0.336242
221.000000	0.344709
220.000000	0.354704
219.000000	0.365903
218.000000	0.378490
217.000000	0.392859
216.000000	0.409737
215.000000	0.429437
214.000000	0.452774
213.000000	0.480156
212.000000	0.512469
211.000000	0.550126
210.000000	0.594361
209.000000	0.645711
208.000000	0.705674
207.000000	0.776001
206.000000	0.859005
205.000000	0.957809
204.000000	1.076948
203.000000	1.222544
202.000000	1.404296
201.000000	1.636874
200.000000	1.939125
