PE UV       SUBTECH     SPECTRUM    ASCII       PEDS        4.00        
   -1
KY5-03A_1CM.Sample.Raw.asc
11/08/25
11:02:04.00
11/08/25
11:02:04.00
Hermanni Kaartokallio

200.000000
1
Lambda 650
650N8121101
PerkinElmer UV WinLab 6.0.2.0723 / 1.61.00 Lambda 650

0
0
2
0
0
UV/VIS
1
1
1
uv/vis/nir detector
0
0
0
0
Fix
 
0
0.24
0
0
0
 
 
 
0
 
0
319.2
0
Front
100
 
 
 
0
0
0
 
0
 
 
 
0
 
 
0
0
0
0
0
 
 
 
 
0
0
#HDR
-1
-1
#GR
nm
A
1.0
0.0
800.000000
-1.000000
601
8
2.323843
0.034657
#DATA
800.000000	0.040641
799.000000	0.040808
798.000000	0.040875
797.000000	0.040913
796.000000	0.040902
795.000000	0.041004
794.000000	0.041194
793.000000	0.041052
792.000000	0.041159
791.000000	0.041300
790.000000	0.041436
789.000000	0.041397
788.000000	0.041389
787.000000	0.041586
786.000000	0.041603
785.000000	0.041637
784.000000	0.041942
783.000000	0.041977
782.000000	0.042067
781.000000	0.042114
780.000000	0.042172
779.000000	0.042388
778.000000	0.042628
777.000000	0.042758
776.000000	0.042915
775.000000	0.043143
774.000000	0.043166
773.000000	0.043255
772.000000	0.043548
771.000000	0.043655
770.000000	0.043747
769.000000	0.043771
768.000000	0.043796
767.000000	0.043788
766.000000	0.043876
765.000000	0.043975
764.000000	0.043892
763.000000	0.043820
762.000000	0.043805
761.000000	0.043743
760.000000	0.043659
759.000000	0.043678
758.000000	0.043586
757.000000	0.043652
756.000000	0.043607
755.000000	0.043541
754.000000	0.043591
753.000000	0.043587
752.000000	0.043644
751.000000	0.043582
750.000000	0.043584
749.000000	0.043605
748.000000	0.043629
747.000000	0.043628
746.000000	0.043650
745.000000	0.043602
744.000000	0.043511
743.000000	0.043518
742.000000	0.043590
741.000000	0.043465
740.000000	0.043392
739.000000	0.043350
738.000000	0.043156
737.000000	0.042911
736.000000	0.042657
735.000000	0.042392
734.000000	0.042182
733.000000	0.041888
732.000000	0.041364
731.000000	0.040843
730.000000	0.040372
729.000000	0.040010
728.000000	0.039667
727.000000	0.039172
726.000000	0.038875
725.000000	0.038587
724.000000	0.038362
723.000000	0.038067
722.000000	0.037888
721.000000	0.037614
720.000000	0.037400
719.000000	0.037207
718.000000	0.037063
717.000000	0.036967
716.000000	0.036801
715.000000	0.036659
714.000000	0.036549
713.000000	0.036428
712.000000	0.036333
711.000000	0.036301
710.000000	0.036258
709.000000	0.036119
708.000000	0.036101
707.000000	0.036119
706.000000	0.036048
705.000000	0.035958
704.000000	0.035879
703.000000	0.035700
702.000000	0.035493
701.000000	0.035357
700.000000	0.035249
699.000000	0.035242
698.000000	0.035150
697.000000	0.034988
696.000000	0.034893
695.000000	0.034882
694.000000	0.034900
693.000000	0.034818
692.000000	0.034744
691.000000	0.034681
690.000000	0.034657
689.000000	0.034795
688.000000	0.034798
687.000000	0.034796
686.000000	0.034955
685.000000	0.034989
684.000000	0.034970
683.000000	0.035043
682.000000	0.035021
681.000000	0.035029
680.000000	0.035117
679.000000	0.035194
678.000000	0.035236
677.000000	0.035231
676.000000	0.035239
675.000000	0.035235
674.000000	0.035239
673.000000	0.035337
672.000000	0.035413
671.000000	0.035429
670.000000	0.035414
669.000000	0.035462
668.000000	0.035567
667.000000	0.035553
666.000000	0.035494
665.000000	0.035412
664.000000	0.035407
663.000000	0.035460
662.000000	0.035433
661.000000	0.035461
660.000000	0.035479
659.000000	0.035442
658.000000	0.035407
657.000000	0.035459
656.000000	0.035464
655.000000	0.035492
654.000000	0.035572
653.000000	0.035529
652.000000	0.035563
651.000000	0.035614
650.000000	0.035755
649.000000	0.035892
648.000000	0.035974
647.000000	0.035994
646.000000	0.036088
645.000000	0.036204
644.000000	0.036351
643.000000	0.036423
642.000000	0.036518
641.000000	0.036640
640.000000	0.036762
639.000000	0.036859
638.000000	0.036945
637.000000	0.037013
636.000000	0.037071
635.000000	0.037225
634.000000	0.037233
633.000000	0.037362
632.000000	0.037420
631.000000	0.037475
630.000000	0.037497
629.000000	0.037527
628.000000	0.037480
627.000000	0.037476
626.000000	0.037546
625.000000	0.037542
624.000000	0.037592
623.000000	0.037564
622.000000	0.037573
621.000000	0.037633
620.000000	0.037780
619.000000	0.037694
618.000000	0.037740
617.000000	0.037755
616.000000	0.037801
615.000000	0.037838
614.000000	0.037883
613.000000	0.037944
612.000000	0.038035
611.000000	0.038127
610.000000	0.038133
609.000000	0.038197
608.000000	0.038253
607.000000	0.038408
606.000000	0.038504
605.000000	0.038541
604.000000	0.038538
603.000000	0.038553
602.000000	0.038656
601.000000	0.038787
600.000000	0.038812
599.000000	0.038902
598.000000	0.038825
597.000000	0.038924
596.000000	0.039000
595.000000	0.039102
594.000000	0.039087
593.000000	0.039239
592.000000	0.039304
591.000000	0.039356
590.000000	0.039379
589.000000	0.039460
588.000000	0.039512
587.000000	0.039617
586.000000	0.039757
585.000000	0.039872
584.000000	0.039972
583.000000	0.040051
582.000000	0.040167
581.000000	0.040326
580.000000	0.040465
579.000000	0.040463
578.000000	0.040580
577.000000	0.040795
576.000000	0.040892
575.000000	0.041015
574.000000	0.041165
573.000000	0.041159
572.000000	0.041401
571.000000	0.041517
570.000000	0.041634
569.000000	0.041789
568.000000	0.041900
567.000000	0.041945
566.000000	0.042073
565.000000	0.042224
564.000000	0.042304
563.000000	0.042447
562.000000	0.042636
561.000000	0.042648
560.000000	0.042759
559.000000	0.042900
558.000000	0.043089
557.000000	0.043125
556.000000	0.043263
555.000000	0.043347
554.000000	0.043473
553.000000	0.043666
552.000000	0.043786
551.000000	0.043843
550.000000	0.043990
549.000000	0.044025
548.000000	0.044065
547.000000	0.044125
546.000000	0.044267
545.000000	0.044269
544.000000	0.044182
543.000000	0.044204
542.000000	0.044278
541.000000	0.044316
540.000000	0.044456
539.000000	0.044566
538.000000	0.044647
537.000000	0.044706
536.000000	0.044754
535.000000	0.044882
534.000000	0.045001
533.000000	0.045072
532.000000	0.045170
531.000000	0.045211
530.000000	0.045262
529.000000	0.045396
528.000000	0.045409
527.000000	0.045519
526.000000	0.045707
525.000000	0.045768
524.000000	0.045796
523.000000	0.045938
522.000000	0.046132
521.000000	0.046239
520.000000	0.046360
519.000000	0.046480
518.000000	0.046538
517.000000	0.046618
516.000000	0.046838
515.000000	0.046986
514.000000	0.047115
513.000000	0.047204
512.000000	0.047396
511.000000	0.047639
510.000000	0.047758
509.000000	0.047917
508.000000	0.048084
507.000000	0.048220
506.000000	0.048380
505.000000	0.048603
504.000000	0.048811
503.000000	0.049013
502.000000	0.049160
501.000000	0.049321
500.000000	0.049500
499.000000	0.049772
498.000000	0.050032
497.000000	0.050246
496.000000	0.050472
495.000000	0.050655
494.000000	0.050866
493.000000	0.051164
492.000000	0.051394
491.000000	0.051620
490.000000	0.051879
489.000000	0.052094
488.000000	0.052315
487.000000	0.052601
486.000000	0.052947
485.000000	0.053273
484.000000	0.053530
483.000000	0.053768
482.000000	0.054094
481.000000	0.054410
480.000000	0.054622
479.000000	0.054859
478.000000	0.055107
477.000000	0.055391
476.000000	0.055668
475.000000	0.056007
474.000000	0.056344
473.000000	0.056657
472.000000	0.056986
471.000000	0.057216
470.000000	0.057522
469.000000	0.057946
468.000000	0.058318
467.000000	0.058626
466.000000	0.059039
465.000000	0.059511
464.000000	0.059924
463.000000	0.060228
462.000000	0.060522
461.000000	0.060935
460.000000	0.061404
459.000000	0.061780
458.000000	0.062195
457.000000	0.062654
456.000000	0.063080
455.000000	0.063518
454.000000	0.063954
453.000000	0.064347
452.000000	0.064720
451.000000	0.065210
450.000000	0.065698
449.000000	0.066210
448.000000	0.066637
447.000000	0.067077
446.000000	0.067642
445.000000	0.068174
444.000000	0.068713
443.000000	0.069199
442.000000	0.069721
441.000000	0.070085
440.000000	0.070714
439.000000	0.071243
438.000000	0.071754
437.000000	0.072253
436.000000	0.072783
435.000000	0.073267
434.000000	0.073920
433.000000	0.074468
432.000000	0.074996
431.000000	0.075530
430.000000	0.076183
429.000000	0.076665
428.000000	0.077286
427.000000	0.077973
426.000000	0.078592
425.000000	0.079184
424.000000	0.079904
423.000000	0.080482
422.000000	0.081088
421.000000	0.081791
420.000000	0.082445
419.000000	0.083079
418.000000	0.083747
417.000000	0.084409
416.000000	0.085155
415.000000	0.085866
414.000000	0.086709
413.000000	0.087528
412.000000	0.088223
411.000000	0.089016
410.000000	0.089866
409.000000	0.090795
408.000000	0.091583
407.000000	0.092520
406.000000	0.093435
405.000000	0.094279
404.000000	0.095201
403.000000	0.096253
402.000000	0.097230
401.000000	0.098200
400.000000	0.099176
399.000000	0.100297
398.000000	0.101288
397.000000	0.102412
396.000000	0.103524
395.000000	0.104637
394.000000	0.105708
393.000000	0.106759
392.000000	0.108019
391.000000	0.109287
390.000000	0.110496
389.000000	0.111798
388.000000	0.113095
387.000000	0.114295
386.000000	0.115547
385.000000	0.116980
384.000000	0.118340
383.000000	0.119661
382.000000	0.121009
381.000000	0.122315
380.000000	0.123921
379.000000	0.125425
378.000000	0.127131
377.000000	0.128623
376.000000	0.130014
375.000000	0.131749
374.000000	0.133434
373.000000	0.135018
372.000000	0.136789
371.000000	0.138354
370.000000	0.140129
369.000000	0.142015
368.000000	0.143711
367.000000	0.145545
366.000000	0.147390
365.000000	0.149239
364.000000	0.151086
363.000000	0.153157
362.000000	0.154958
361.000000	0.157044
360.000000	0.159162
359.000000	0.161342
358.000000	0.163009
357.000000	0.165310
356.000000	0.167370
355.000000	0.169590
354.000000	0.171751
353.000000	0.174098
352.000000	0.176217
351.000000	0.178583
350.000000	0.180730
349.000000	0.183072
348.000000	0.185327
347.000000	0.187609
346.000000	0.189955
345.000000	0.192526
344.000000	0.195026
343.000000	0.197342
342.000000	0.199788
341.000000	0.202343
340.000000	0.204808
339.000000	0.207362
338.000000	0.209937
337.000000	0.212656
336.000000	0.215233
335.000000	0.217846
334.000000	0.220698
333.000000	0.223363
332.000000	0.226167
331.000000	0.229013
330.000000	0.231779
329.000000	0.234523
328.000000	0.237444
327.000000	0.240400
326.000000	0.243475
325.000000	0.246189
324.000000	0.249205
323.000000	0.252217
322.000000	0.255366
321.000000	0.258539
320.000000	0.261617
319.000000	0.264937
318.000000	0.268205
317.000000	0.271433
316.000000	0.274688
315.000000	0.278071
314.000000	0.281543
313.000000	0.284991
312.000000	0.288416
311.000000	0.292019
310.000000	0.295639
309.000000	0.299168
308.000000	0.302843
307.000000	0.306538
306.000000	0.310219
305.000000	0.314025
304.000000	0.317792
303.000000	0.321743
302.000000	0.325798
301.000000	0.329756
300.000000	0.333795
299.000000	0.337877
298.000000	0.341905
297.000000	0.346066
296.000000	0.350448
295.000000	0.354732
294.000000	0.358980
293.000000	0.363459
292.000000	0.368060
291.000000	0.372684
290.000000	0.377411
289.000000	0.382218
288.000000	0.387087
287.000000	0.391950
286.000000	0.396878
285.000000	0.401913
284.000000	0.407018
283.000000	0.412012
282.000000	0.417049
281.000000	0.422141
280.000000	0.427167
279.000000	0.432189
278.000000	0.437313
277.000000	0.442485
276.000000	0.447733
275.000000	0.452956
274.000000	0.458343
273.000000	0.463735
272.000000	0.468913
271.000000	0.474234
270.000000	0.479522
269.000000	0.484643
268.000000	0.489800
267.000000	0.495138
266.000000	0.500264
265.000000	0.505098
264.000000	0.509964
263.000000	0.514816
262.000000	0.519490
261.000000	0.524090
260.000000	0.528676
259.000000	0.533159
258.000000	0.537627
257.000000	0.541973
256.000000	0.546298
255.000000	0.550558
254.000000	0.554907
253.000000	0.559259
252.000000	0.563702
251.000000	0.568290
250.000000	0.572980
249.000000	0.577903
248.000000	0.583174
247.000000	0.588424
246.000000	0.593990
245.000000	0.600079
244.000000	0.606441
243.000000	0.613170
242.000000	0.620240
241.000000	0.627726
240.000000	0.635501
239.000000	0.643606
238.000000	0.652228
237.000000	0.661394
236.000000	0.670788
235.000000	0.680931
234.000000	0.691648
233.000000	0.702689
232.000000	0.714385
231.000000	0.726850
230.000000	0.739695
229.000000	0.753172
228.000000	0.767288
227.000000	0.782142
226.000000	0.797927
225.000000	0.814650
224.000000	0.832649
223.000000	0.851804
222.000000	0.872000
221.000000	0.893266
220.000000	0.916138
219.000000	0.940304
218.000000	0.965955
217.000000	0.993693
216.000000	1.023290
215.000000	1.055023
214.000000	1.089153
213.000000	1.126225
212.000000	1.166066
211.000000	1.209228
210.000000	1.255685
209.000000	1.305865
208.000000	1.361824
207.000000	1.423576
206.000000	1.493942
205.000000	1.572968
204.000000	1.666185
203.000000	1.777915
202.000000	1.915997
201.000000	2.091949
200.000000	2.323843
