PE UV       SUBTECH     SPECTRUM    ASCII       PEDS        4.00        
   -1
KY5-03B_1CM.Sample.Raw.asc
11/08/25
10:17:01.00
11/08/25
10:17:01.00
Hermanni Kaartokallio

200.000000
1
Lambda 650
650N8121101
PerkinElmer UV WinLab 6.0.2.0723 / 1.61.00 Lambda 650

0
0
2
0
0
UV/VIS
1
1
1
uv/vis/nir detector
0
0
0
0
Fix
 
0
0.24
0
0
0
 
 
 
0
 
0
319.2
0
Front
100
 
 
 
0
0
0
 
0
 
 
 
0
 
 
0
0
0
0
0
 
 
 
 
0
0
#HDR
-1
-1
#GR
nm
A
1.0
0.0
800.000000
-1.000000
601
8
1.921684
0.031861
#DATA
800.000000	0.040053
799.000000	0.040176
798.000000	0.040368
797.000000	0.040292
796.000000	0.040311
795.000000	0.040462
794.000000	0.040683
793.000000	0.040512
792.000000	0.040445
791.000000	0.040619
790.000000	0.040794
789.000000	0.040699
788.000000	0.040761
787.000000	0.040989
786.000000	0.040936
785.000000	0.040998
784.000000	0.041308
783.000000	0.041410
782.000000	0.041433
781.000000	0.041445
780.000000	0.041656
779.000000	0.041867
778.000000	0.041977
777.000000	0.042070
776.000000	0.042359
775.000000	0.042576
774.000000	0.042490
773.000000	0.042681
772.000000	0.042848
771.000000	0.042940
770.000000	0.043097
769.000000	0.043198
768.000000	0.043248
767.000000	0.043224
766.000000	0.043311
765.000000	0.043443
764.000000	0.043433
763.000000	0.043287
762.000000	0.043321
761.000000	0.043286
760.000000	0.043188
759.000000	0.043226
758.000000	0.043249
757.000000	0.043220
756.000000	0.043098
755.000000	0.043165
754.000000	0.043229
753.000000	0.043082
752.000000	0.043140
751.000000	0.043252
750.000000	0.043145
749.000000	0.043023
748.000000	0.043094
747.000000	0.043140
746.000000	0.043148
745.000000	0.043000
744.000000	0.042929
743.000000	0.042939
742.000000	0.042859
741.000000	0.042794
740.000000	0.042709
739.000000	0.042507
738.000000	0.042236
737.000000	0.042086
736.000000	0.041832
735.000000	0.041365
734.000000	0.040967
733.000000	0.040576
732.000000	0.039999
731.000000	0.039496
730.000000	0.039036
729.000000	0.038592
728.000000	0.038093
727.000000	0.037664
726.000000	0.037310
725.000000	0.037068
724.000000	0.036686
723.000000	0.036342
722.000000	0.036206
721.000000	0.035905
720.000000	0.035621
719.000000	0.035468
718.000000	0.035297
717.000000	0.035115
716.000000	0.034980
715.000000	0.034852
714.000000	0.034703
713.000000	0.034543
712.000000	0.034430
711.000000	0.034364
710.000000	0.034252
709.000000	0.034056
708.000000	0.034051
707.000000	0.034076
706.000000	0.033926
705.000000	0.033789
704.000000	0.033706
703.000000	0.033542
702.000000	0.033288
701.000000	0.033114
700.000000	0.033013
699.000000	0.032900
698.000000	0.032793
697.000000	0.032675
696.000000	0.032558
695.000000	0.032515
694.000000	0.032543
693.000000	0.032510
692.000000	0.032421
691.000000	0.032348
690.000000	0.032328
689.000000	0.032398
688.000000	0.032312
687.000000	0.032324
686.000000	0.032431
685.000000	0.032373
684.000000	0.032444
683.000000	0.032608
682.000000	0.032508
681.000000	0.032305
680.000000	0.032446
679.000000	0.032533
678.000000	0.032516
677.000000	0.032574
676.000000	0.032630
675.000000	0.032458
674.000000	0.032337
673.000000	0.032537
672.000000	0.032716
671.000000	0.032655
670.000000	0.032544
669.000000	0.032475
668.000000	0.032603
667.000000	0.032576
666.000000	0.032416
665.000000	0.032316
664.000000	0.032304
663.000000	0.032183
662.000000	0.032243
661.000000	0.032280
660.000000	0.032189
659.000000	0.032082
658.000000	0.032080
657.000000	0.032030
656.000000	0.031924
655.000000	0.031867
654.000000	0.031990
653.000000	0.031939
652.000000	0.031875
651.000000	0.031861
650.000000	0.032014
649.000000	0.032050
648.000000	0.032091
647.000000	0.032110
646.000000	0.032179
645.000000	0.032030
644.000000	0.032173
643.000000	0.032304
642.000000	0.032350
641.000000	0.032365
640.000000	0.032529
639.000000	0.032506
638.000000	0.032546
637.000000	0.032560
636.000000	0.032658
635.000000	0.032794
634.000000	0.032713
633.000000	0.032681
632.000000	0.032771
631.000000	0.032714
630.000000	0.032711
629.000000	0.032762
628.000000	0.032808
627.000000	0.032589
626.000000	0.032603
625.000000	0.032647
624.000000	0.032583
623.000000	0.032570
622.000000	0.032576
621.000000	0.032560
620.000000	0.032583
619.000000	0.032468
618.000000	0.032571
617.000000	0.032615
616.000000	0.032517
615.000000	0.032492
614.000000	0.032571
613.000000	0.032565
612.000000	0.032569
611.000000	0.032609
610.000000	0.032694
609.000000	0.032528
608.000000	0.032604
607.000000	0.032708
606.000000	0.032775
605.000000	0.032849
604.000000	0.032759
603.000000	0.032672
602.000000	0.032725
601.000000	0.032722
600.000000	0.032829
599.000000	0.032896
598.000000	0.032752
597.000000	0.032692
596.000000	0.032936
595.000000	0.032928
594.000000	0.032850
593.000000	0.032927
592.000000	0.032918
591.000000	0.032965
590.000000	0.032831
589.000000	0.033060
588.000000	0.033053
587.000000	0.033043
586.000000	0.033146
585.000000	0.033156
584.000000	0.033148
583.000000	0.033179
582.000000	0.033250
581.000000	0.033379
580.000000	0.033428
579.000000	0.033328
578.000000	0.033358
577.000000	0.033558
576.000000	0.033541
575.000000	0.033668
574.000000	0.033738
573.000000	0.033636
572.000000	0.033622
571.000000	0.033812
570.000000	0.033930
569.000000	0.033989
568.000000	0.034045
567.000000	0.034014
566.000000	0.034031
565.000000	0.034071
564.000000	0.034176
563.000000	0.034349
562.000000	0.034390
561.000000	0.034268
560.000000	0.034342
559.000000	0.034388
558.000000	0.034424
557.000000	0.034506
556.000000	0.034575
555.000000	0.034433
554.000000	0.034471
553.000000	0.034643
552.000000	0.034718
551.000000	0.034600
550.000000	0.034680
549.000000	0.034687
548.000000	0.034599
547.000000	0.034597
546.000000	0.034688
545.000000	0.034708
544.000000	0.034620
543.000000	0.034638
542.000000	0.034675
541.000000	0.034614
540.000000	0.034592
539.000000	0.034655
538.000000	0.034718
537.000000	0.034652
536.000000	0.034582
535.000000	0.034644
534.000000	0.034631
533.000000	0.034533
532.000000	0.034568
531.000000	0.034605
530.000000	0.034479
529.000000	0.034451
528.000000	0.034451
527.000000	0.034489
526.000000	0.034465
525.000000	0.034452
524.000000	0.034408
523.000000	0.034368
522.000000	0.034375
521.000000	0.034429
520.000000	0.034429
519.000000	0.034368
518.000000	0.034322
517.000000	0.034382
516.000000	0.034423
515.000000	0.034348
514.000000	0.034352
513.000000	0.034387
512.000000	0.034406
511.000000	0.034476
510.000000	0.034499
509.000000	0.034535
508.000000	0.034509
507.000000	0.034530
506.000000	0.034606
505.000000	0.034649
504.000000	0.034639
503.000000	0.034719
502.000000	0.034759
501.000000	0.034762
500.000000	0.034788
499.000000	0.034900
498.000000	0.034973
497.000000	0.034996
496.000000	0.035068
495.000000	0.035130
494.000000	0.035154
493.000000	0.035204
492.000000	0.035348
491.000000	0.035475
490.000000	0.035450
489.000000	0.035488
488.000000	0.035621
487.000000	0.035689
486.000000	0.035790
485.000000	0.035918
484.000000	0.035989
483.000000	0.035992
482.000000	0.036046
481.000000	0.036191
480.000000	0.036257
479.000000	0.036253
478.000000	0.036332
477.000000	0.036552
476.000000	0.036602
475.000000	0.036677
474.000000	0.036802
473.000000	0.036957
472.000000	0.037091
471.000000	0.036983
470.000000	0.037077
469.000000	0.037235
468.000000	0.037404
467.000000	0.037482
466.000000	0.037549
465.000000	0.037676
464.000000	0.037658
463.000000	0.037887
462.000000	0.038034
461.000000	0.038079
460.000000	0.038181
459.000000	0.038270
458.000000	0.038410
457.000000	0.038530
456.000000	0.038654
455.000000	0.038855
454.000000	0.038972
453.000000	0.039136
452.000000	0.039247
451.000000	0.039384
450.000000	0.039428
449.000000	0.039593
448.000000	0.039765
447.000000	0.039822
446.000000	0.039895
445.000000	0.040109
444.000000	0.040292
443.000000	0.040347
442.000000	0.040388
441.000000	0.040586
440.000000	0.040733
439.000000	0.040821
438.000000	0.040928
437.000000	0.041096
436.000000	0.041118
435.000000	0.041037
434.000000	0.041348
433.000000	0.041467
432.000000	0.041590
431.000000	0.041670
430.000000	0.041697
429.000000	0.041707
428.000000	0.041813
427.000000	0.042063
426.000000	0.042008
425.000000	0.042049
424.000000	0.042017
423.000000	0.042366
422.000000	0.042264
421.000000	0.042193
420.000000	0.042299
419.000000	0.042639
418.000000	0.042537
417.000000	0.042426
416.000000	0.042622
415.000000	0.042658
414.000000	0.042663
413.000000	0.042767
412.000000	0.043185
411.000000	0.043184
410.000000	0.042991
409.000000	0.043276
408.000000	0.043429
407.000000	0.043609
406.000000	0.043668
405.000000	0.043739
404.000000	0.043856
403.000000	0.043998
402.000000	0.044242
401.000000	0.044519
400.000000	0.044684
399.000000	0.044667
398.000000	0.044946
397.000000	0.045205
396.000000	0.045420
395.000000	0.045447
394.000000	0.046007
393.000000	0.045901
392.000000	0.045993
391.000000	0.046532
390.000000	0.046777
389.000000	0.046897
388.000000	0.047119
387.000000	0.047185
386.000000	0.047475
385.000000	0.047747
384.000000	0.047924
383.000000	0.048410
382.000000	0.048629
381.000000	0.048552
380.000000	0.048920
379.000000	0.049290
378.000000	0.049516
377.000000	0.049649
376.000000	0.050067
375.000000	0.050361
374.000000	0.050602
373.000000	0.051111
372.000000	0.051441
371.000000	0.051590
370.000000	0.051890
369.000000	0.052428
368.000000	0.052767
367.000000	0.053029
366.000000	0.053349
365.000000	0.053809
364.000000	0.054134
363.000000	0.054493
362.000000	0.054850
361.000000	0.055338
360.000000	0.055697
359.000000	0.056066
358.000000	0.056408
357.000000	0.056960
356.000000	0.057338
355.000000	0.057800
354.000000	0.058320
353.000000	0.058623
352.000000	0.059069
351.000000	0.059685
350.000000	0.060055
349.000000	0.060508
348.000000	0.061068
347.000000	0.061447
346.000000	0.061996
345.000000	0.062474
344.000000	0.063079
343.000000	0.063559
342.000000	0.063988
341.000000	0.064535
340.000000	0.065080
339.000000	0.065668
338.000000	0.066107
337.000000	0.066760
336.000000	0.067342
335.000000	0.067777
334.000000	0.068397
333.000000	0.069096
332.000000	0.069705
331.000000	0.070184
330.000000	0.070753
329.000000	0.071430
328.000000	0.072090
327.000000	0.072625
326.000000	0.073321
325.000000	0.073944
324.000000	0.074684
323.000000	0.075349
322.000000	0.075935
321.000000	0.076753
320.000000	0.077401
319.000000	0.078210
318.000000	0.078888
317.000000	0.079572
316.000000	0.080423
315.000000	0.081228
314.000000	0.081962
313.000000	0.082946
312.000000	0.083830
311.000000	0.084701
310.000000	0.085605
309.000000	0.086572
308.000000	0.087585
307.000000	0.088473
306.000000	0.089424
305.000000	0.090626
304.000000	0.091639
303.000000	0.092659
302.000000	0.093943
301.000000	0.095110
300.000000	0.096098
299.000000	0.097327
298.000000	0.098656
297.000000	0.099889
296.000000	0.101191
295.000000	0.102549
294.000000	0.103948
293.000000	0.105396
292.000000	0.106833
291.000000	0.108320
290.000000	0.109812
289.000000	0.111300
288.000000	0.112787
287.000000	0.114331
286.000000	0.115881
285.000000	0.117425
284.000000	0.119146
283.000000	0.120825
282.000000	0.122328
281.000000	0.123877
280.000000	0.125560
279.000000	0.127183
278.000000	0.128662
277.000000	0.130258
276.000000	0.132033
275.000000	0.133658
274.000000	0.135321
273.000000	0.137109
272.000000	0.138738
271.000000	0.140311
270.000000	0.141921
269.000000	0.143528
268.000000	0.145136
267.000000	0.146800
266.000000	0.148457
265.000000	0.150056
264.000000	0.151518
263.000000	0.152836
262.000000	0.154207
261.000000	0.155751
260.000000	0.157047
259.000000	0.158377
258.000000	0.159850
257.000000	0.161079
256.000000	0.162169
255.000000	0.163392
254.000000	0.164669
253.000000	0.165970
252.000000	0.167283
251.000000	0.168625
250.000000	0.169888
249.000000	0.171306
248.000000	0.172857
247.000000	0.174515
246.000000	0.176083
245.000000	0.177721
244.000000	0.179608
243.000000	0.181672
242.000000	0.183654
241.000000	0.185896
240.000000	0.188315
239.000000	0.190821
238.000000	0.193350
237.000000	0.196121
236.000000	0.199097
235.000000	0.202135
234.000000	0.205339
233.000000	0.208578
232.000000	0.211963
231.000000	0.215737
230.000000	0.219611
229.000000	0.223758
228.000000	0.227862
227.000000	0.232251
226.000000	0.236893
225.000000	0.242140
224.000000	0.247810
223.000000	0.254026
222.000000	0.261101
221.000000	0.268635
220.000000	0.277325
219.000000	0.287478
218.000000	0.299321
217.000000	0.312949
216.000000	0.329123
215.000000	0.348373
214.000000	0.371230
213.000000	0.398382
212.000000	0.430718
211.000000	0.469135
210.000000	0.514513
209.000000	0.567341
208.000000	0.629667
207.000000	0.703148
206.000000	0.789959
205.000000	0.893431
204.000000	1.017712
203.000000	1.171009
202.000000	1.362314
201.000000	1.606397
200.000000	1.921684
