PE UV       SUBTECH     SPECTRUM    ASCII       PEDS        4.00        
   -1
KY5-01A_1CM.Sample.Raw.asc
11/08/25
10:39:53.00
11/08/25
10:39:53.00
Hermanni Kaartokallio

200.000000
1
Lambda 650
650N8121101
PerkinElmer UV WinLab 6.0.2.0723 / 1.61.00 Lambda 650

0
0
2
0
0
UV/VIS
1
1
1
uv/vis/nir detector
0
0
0
0
Fix
 
0
0.24
0
0
0
 
 
 
0
 
0
319.2
0
Front
100
 
 
 
0
0
0
 
0
 
 
 
0
 
 
0
0
0
0
0
 
 
 
 
0
0
#HDR
-1
-1
#GR
nm
A
1.0
0.0
800.000000
-1.000000
601
8
3.116461
0.037789
#DATA
800.000000	0.041774
799.000000	0.041816
798.000000	0.041970
797.000000	0.041998
796.000000	0.042086
795.000000	0.042046
794.000000	0.042338
793.000000	0.042276
792.000000	0.042352
791.000000	0.042530
790.000000	0.042686
789.000000	0.042571
788.000000	0.042703
787.000000	0.042928
786.000000	0.042946
785.000000	0.042988
784.000000	0.043265
783.000000	0.043397
782.000000	0.043446
781.000000	0.043463
780.000000	0.043648
779.000000	0.043953
778.000000	0.044040
777.000000	0.044189
776.000000	0.044429
775.000000	0.044734
774.000000	0.044668
773.000000	0.044888
772.000000	0.045144
771.000000	0.045201
770.000000	0.045280
769.000000	0.045356
768.000000	0.045517
767.000000	0.045513
766.000000	0.045549
765.000000	0.045713
764.000000	0.045585
763.000000	0.045497
762.000000	0.045527
761.000000	0.045615
760.000000	0.045526
759.000000	0.045499
758.000000	0.045446
757.000000	0.045459
756.000000	0.045436
755.000000	0.045442
754.000000	0.045594
753.000000	0.045503
752.000000	0.045526
751.000000	0.045576
750.000000	0.045564
749.000000	0.045543
748.000000	0.045536
747.000000	0.045580
746.000000	0.045632
745.000000	0.045610
744.000000	0.045605
743.000000	0.045629
742.000000	0.045634
741.000000	0.045607
740.000000	0.045589
739.000000	0.045410
738.000000	0.045189
737.000000	0.045103
736.000000	0.044875
735.000000	0.044511
734.000000	0.044126
733.000000	0.043762
732.000000	0.043357
731.000000	0.042817
730.000000	0.042264
729.000000	0.041856
728.000000	0.041454
727.000000	0.041089
726.000000	0.040827
725.000000	0.040617
724.000000	0.040340
723.000000	0.040034
722.000000	0.039879
721.000000	0.039680
720.000000	0.039448
719.000000	0.039288
718.000000	0.039199
717.000000	0.039099
716.000000	0.038929
715.000000	0.038833
714.000000	0.038715
713.000000	0.038626
712.000000	0.038606
711.000000	0.038589
710.000000	0.038543
709.000000	0.038403
708.000000	0.038475
707.000000	0.038564
706.000000	0.038470
705.000000	0.038418
704.000000	0.038365
703.000000	0.038267
702.000000	0.038154
701.000000	0.038055
700.000000	0.037981
699.000000	0.037985
698.000000	0.037910
697.000000	0.037840
696.000000	0.037809
695.000000	0.037789
694.000000	0.037859
693.000000	0.037877
692.000000	0.037829
691.000000	0.037806
690.000000	0.037878
689.000000	0.038046
688.000000	0.038058
687.000000	0.038060
686.000000	0.038226
685.000000	0.038278
684.000000	0.038274
683.000000	0.038406
682.000000	0.038495
681.000000	0.038505
680.000000	0.038613
679.000000	0.038730
678.000000	0.038833
677.000000	0.038940
676.000000	0.038984
675.000000	0.039005
674.000000	0.039051
673.000000	0.039185
672.000000	0.039334
671.000000	0.039391
670.000000	0.039421
669.000000	0.039467
668.000000	0.039598
667.000000	0.039619
666.000000	0.039637
665.000000	0.039601
664.000000	0.039687
663.000000	0.039739
662.000000	0.039817
661.000000	0.039873
660.000000	0.039881
659.000000	0.039897
658.000000	0.039897
657.000000	0.039989
656.000000	0.040088
655.000000	0.040141
654.000000	0.040251
653.000000	0.040288
652.000000	0.040289
651.000000	0.040411
650.000000	0.040676
649.000000	0.040773
648.000000	0.040872
647.000000	0.040938
646.000000	0.041079
645.000000	0.041188
644.000000	0.041438
643.000000	0.041599
642.000000	0.041771
641.000000	0.041870
640.000000	0.042065
639.000000	0.042263
638.000000	0.042419
637.000000	0.042462
636.000000	0.042571
635.000000	0.042700
634.000000	0.042813
633.000000	0.042992
632.000000	0.043124
631.000000	0.043185
630.000000	0.043307
629.000000	0.043368
628.000000	0.043438
627.000000	0.043499
626.000000	0.043593
625.000000	0.043704
624.000000	0.043814
623.000000	0.043911
622.000000	0.043980
621.000000	0.044062
620.000000	0.044222
619.000000	0.044215
618.000000	0.044401
617.000000	0.044733
616.000000	0.044577
615.000000	0.044649
614.000000	0.044877
613.000000	0.044895
612.000000	0.045041
611.000000	0.045281
610.000000	0.045408
609.000000	0.045538
608.000000	0.045709
607.000000	0.045881
606.000000	0.046103
605.000000	0.046271
604.000000	0.046297
603.000000	0.046471
602.000000	0.046632
601.000000	0.046753
600.000000	0.046974
599.000000	0.047193
598.000000	0.047165
597.000000	0.047332
596.000000	0.047546
595.000000	0.047738
594.000000	0.047794
593.000000	0.048026
592.000000	0.048202
591.000000	0.048308
590.000000	0.048446
589.000000	0.048724
588.000000	0.048895
587.000000	0.049047
586.000000	0.049250
585.000000	0.049401
584.000000	0.049716
583.000000	0.049865
582.000000	0.050081
581.000000	0.050337
580.000000	0.050579
579.000000	0.050676
578.000000	0.050933
577.000000	0.051243
576.000000	0.051374
575.000000	0.051612
574.000000	0.051901
573.000000	0.052036
572.000000	0.052266
571.000000	0.052528
570.000000	0.052775
569.000000	0.053033
568.000000	0.053241
567.000000	0.053474
566.000000	0.053768
565.000000	0.053971
564.000000	0.054182
563.000000	0.054435
562.000000	0.054778
561.000000	0.054885
560.000000	0.055156
559.000000	0.055390
558.000000	0.055683
557.000000	0.055945
556.000000	0.056173
555.000000	0.056358
554.000000	0.056554
553.000000	0.056891
552.000000	0.057226
551.000000	0.057363
550.000000	0.057644
549.000000	0.057854
548.000000	0.057972
547.000000	0.058171
546.000000	0.058536
545.000000	0.058787
544.000000	0.058964
543.000000	0.059196
542.000000	0.059468
541.000000	0.059720
540.000000	0.059953
539.000000	0.060177
538.000000	0.060490
537.000000	0.060700
536.000000	0.060893
535.000000	0.061143
534.000000	0.061504
533.000000	0.061685
532.000000	0.061942
531.000000	0.062209
530.000000	0.062480
529.000000	0.062732
528.000000	0.062958
527.000000	0.063311
526.000000	0.063625
525.000000	0.063865
524.000000	0.064072
523.000000	0.064334
522.000000	0.064698
521.000000	0.064997
520.000000	0.065315
519.000000	0.065606
518.000000	0.065898
517.000000	0.066270
516.000000	0.066665
515.000000	0.066977
514.000000	0.067318
513.000000	0.067671
512.000000	0.068037
511.000000	0.068410
510.000000	0.068769
509.000000	0.069207
508.000000	0.069569
507.000000	0.069908
506.000000	0.070325
505.000000	0.070782
504.000000	0.071179
503.000000	0.071597
502.000000	0.072023
501.000000	0.072439
500.000000	0.072867
499.000000	0.073390
498.000000	0.073881
497.000000	0.074301
496.000000	0.074786
495.000000	0.075285
494.000000	0.075779
493.000000	0.076310
492.000000	0.076841
491.000000	0.077359
490.000000	0.077859
489.000000	0.078332
488.000000	0.078852
487.000000	0.079427
486.000000	0.080027
485.000000	0.080626
484.000000	0.081182
483.000000	0.081707
482.000000	0.082303
481.000000	0.082901
480.000000	0.083500
479.000000	0.084111
478.000000	0.084697
477.000000	0.085354
476.000000	0.085980
475.000000	0.086584
474.000000	0.087211
473.000000	0.087931
472.000000	0.088631
471.000000	0.089252
470.000000	0.090007
469.000000	0.090801
468.000000	0.091481
467.000000	0.092184
466.000000	0.093006
465.000000	0.093767
464.000000	0.094512
463.000000	0.095384
462.000000	0.096200
461.000000	0.097024
460.000000	0.097893
459.000000	0.098742
458.000000	0.099625
457.000000	0.100448
456.000000	0.101374
455.000000	0.102370
454.000000	0.103299
453.000000	0.104176
452.000000	0.105061
451.000000	0.106071
450.000000	0.107049
449.000000	0.108091
448.000000	0.109133
447.000000	0.110117
446.000000	0.111264
445.000000	0.112389
444.000000	0.113487
443.000000	0.114565
442.000000	0.115715
441.000000	0.116844
440.000000	0.118022
439.000000	0.119194
438.000000	0.120409
437.000000	0.121719
436.000000	0.122932
435.000000	0.124125
434.000000	0.125554
433.000000	0.126898
432.000000	0.128186
431.000000	0.129523
430.000000	0.130962
429.000000	0.132264
428.000000	0.133702
427.000000	0.135259
426.000000	0.136758
425.000000	0.138302
424.000000	0.139838
423.000000	0.141393
422.000000	0.142925
421.000000	0.144565
420.000000	0.146248
419.000000	0.147920
418.000000	0.149629
417.000000	0.151305
416.000000	0.153155
415.000000	0.155016
414.000000	0.156851
413.000000	0.158707
412.000000	0.160734
411.000000	0.162711
410.000000	0.164752
409.000000	0.166836
408.000000	0.168956
407.000000	0.171118
406.000000	0.173297
405.000000	0.175392
404.000000	0.177768
403.000000	0.180082
402.000000	0.182555
401.000000	0.185003
400.000000	0.187480
399.000000	0.189836
398.000000	0.192532
397.000000	0.195123
396.000000	0.197833
395.000000	0.200529
394.000000	0.203297
393.000000	0.206096
392.000000	0.209023
391.000000	0.211972
390.000000	0.215056
389.000000	0.218099
388.000000	0.221191
387.000000	0.224155
386.000000	0.227420
385.000000	0.230778
384.000000	0.233971
383.000000	0.237452
382.000000	0.240874
381.000000	0.244310
380.000000	0.248086
379.000000	0.251656
378.000000	0.255859
377.000000	0.259435
376.000000	0.263289
375.000000	0.267229
374.000000	0.271100
373.000000	0.275177
372.000000	0.279464
371.000000	0.283395
370.000000	0.287598
369.000000	0.291916
368.000000	0.296398
367.000000	0.300814
366.000000	0.305175
365.000000	0.309760
364.000000	0.314366
363.000000	0.319172
362.000000	0.323848
361.000000	0.328710
360.000000	0.333644
359.000000	0.338509
358.000000	0.343396
357.000000	0.348557
356.000000	0.353716
355.000000	0.358747
354.000000	0.363807
353.000000	0.369059
352.000000	0.374397
351.000000	0.379972
350.000000	0.385490
349.000000	0.390977
348.000000	0.396565
347.000000	0.402111
346.000000	0.407923
345.000000	0.413704
344.000000	0.419636
343.000000	0.425527
342.000000	0.431443
341.000000	0.437445
340.000000	0.443502
339.000000	0.449625
338.000000	0.455820
337.000000	0.462118
336.000000	0.468473
335.000000	0.474739
334.000000	0.481207
333.000000	0.487785
332.000000	0.494442
331.000000	0.501048
330.000000	0.507657
329.000000	0.514400
328.000000	0.521333
327.000000	0.528129
326.000000	0.535068
325.000000	0.542067
324.000000	0.549262
323.000000	0.556516
322.000000	0.563692
321.000000	0.571131
320.000000	0.578497
319.000000	0.586066
318.000000	0.593504
317.000000	0.600973
316.000000	0.608651
315.000000	0.616446
314.000000	0.624138
313.000000	0.631941
312.000000	0.640010
311.000000	0.648239
310.000000	0.656479
309.000000	0.664625
308.000000	0.673003
307.000000	0.681478
306.000000	0.689942
305.000000	0.698716
304.000000	0.707439
303.000000	0.716337
302.000000	0.725359
301.000000	0.734428
300.000000	0.743506
299.000000	0.752640
298.000000	0.761907
297.000000	0.771362
296.000000	0.781057
295.000000	0.790802
294.000000	0.800552
293.000000	0.810492
292.000000	0.820537
291.000000	0.830938
290.000000	0.841459
289.000000	0.851981
288.000000	0.862696
287.000000	0.873468
286.000000	0.884346
285.000000	0.895398
284.000000	0.906764
283.000000	0.918040
282.000000	0.929118
281.000000	0.940203
280.000000	0.951479
279.000000	0.962847
278.000000	0.974313
277.000000	0.986034
276.000000	0.997873
275.000000	1.009744
274.000000	1.021693
273.000000	1.033617
272.000000	1.045350
271.000000	1.057028
270.000000	1.068659
269.000000	1.080268
268.000000	1.091737
267.000000	1.103110
266.000000	1.114258
265.000000	1.125208
264.000000	1.136011
263.000000	1.146568
262.000000	1.156876
261.000000	1.167056
260.000000	1.177099
259.000000	1.186846
258.000000	1.196468
257.000000	1.205973
256.000000	1.215400
255.000000	1.224973
254.000000	1.234485
253.000000	1.244159
252.000000	1.254000
251.000000	1.264309
250.000000	1.274949
249.000000	1.286109
248.000000	1.297648
247.000000	1.309956
246.000000	1.322970
245.000000	1.336649
244.000000	1.351256
243.000000	1.366829
242.000000	1.382997
241.000000	1.399912
240.000000	1.417779
239.000000	1.436537
238.000000	1.456464
237.000000	1.477470
236.000000	1.499684
235.000000	1.522899
234.000000	1.546975
233.000000	1.572628
232.000000	1.599870
231.000000	1.629049
230.000000	1.659526
229.000000	1.691261
228.000000	1.724840
227.000000	1.760409
226.000000	1.798683
225.000000	1.839581
224.000000	1.882489
223.000000	1.928946
222.000000	1.976598
221.000000	2.027997
220.000000	2.082437
219.000000	2.138345
218.000000	2.195887
217.000000	2.255416
216.000000	2.316996
215.000000	2.377794
214.000000	2.441476
213.000000	2.504665
212.000000	2.566243
211.000000	2.624615
210.000000	2.683539
209.000000	2.737293
208.000000	2.791340
207.000000	2.839333
206.000000	2.887747
205.000000	2.929564
204.000000	2.973627
203.000000	3.009284
202.000000	3.045757
201.000000	3.079875
200.000000	3.116461
