PE UV       SUBTECH     SPECTRUM    ASCII       PEDS        4.00        
   -1
TV5-02B_1CM.Sample.Raw.asc
11/08/25
11:30:27.00
11/08/25
11:30:27.00
Hermanni Kaartokallio

200.000000
1
Lambda 650
650N8121101
PerkinElmer UV WinLab 6.0.2.0723 / 1.61.00 Lambda 650

0
0
2
0
0
UV/VIS
1
1
1
uv/vis/nir detector
0
0
0
0
Fix
 
0
0.24
0
0
0
 
 
 
0
 
0
319.2
0
Front
100
 
 
 
0
0
0
 
0
 
 
 
0
 
 
0
0
0
0
0
 
 
 
 
0
0
#HDR
-1
-1
#GR
nm
A
1.0
0.0
800.000000
-1.000000
601
8
2.767604
0.031899
#DATA
800.000000	0.039106
799.000000	0.039245
798.000000	0.039400
797.000000	0.039485
796.000000	0.039319
795.000000	0.039446
794.000000	0.039647
793.000000	0.039577
792.000000	0.039611
791.000000	0.039812
790.000000	0.039905
789.000000	0.039833
788.000000	0.039937
787.000000	0.040055
786.000000	0.040120
785.000000	0.040275
784.000000	0.040443
783.000000	0.040539
782.000000	0.040633
781.000000	0.040710
780.000000	0.040926
779.000000	0.041156
778.000000	0.041201
777.000000	0.041358
776.000000	0.041467
775.000000	0.041715
774.000000	0.041751
773.000000	0.041915
772.000000	0.042116
771.000000	0.042274
770.000000	0.042405
769.000000	0.042483
768.000000	0.042547
767.000000	0.042620
766.000000	0.042667
765.000000	0.042917
764.000000	0.043089
763.000000	0.043129
762.000000	0.043205
761.000000	0.043224
760.000000	0.043089
759.000000	0.043030
758.000000	0.042864
757.000000	0.042937
756.000000	0.042864
755.000000	0.042842
754.000000	0.042996
753.000000	0.042793
752.000000	0.042763
751.000000	0.042731
750.000000	0.042672
749.000000	0.042560
748.000000	0.042541
747.000000	0.042472
746.000000	0.042513
745.000000	0.042438
744.000000	0.042348
743.000000	0.042283
742.000000	0.042199
741.000000	0.042067
740.000000	0.041898
739.000000	0.041758
738.000000	0.041528
737.000000	0.041300
736.000000	0.040975
735.000000	0.040588
734.000000	0.040224
733.000000	0.039875
732.000000	0.039402
731.000000	0.038930
730.000000	0.038379
729.000000	0.037903
728.000000	0.037503
727.000000	0.037114
726.000000	0.036807
725.000000	0.036516
724.000000	0.036231
723.000000	0.035918
722.000000	0.035662
721.000000	0.035371
720.000000	0.035111
719.000000	0.034932
718.000000	0.034782
717.000000	0.034636
716.000000	0.034415
715.000000	0.034260
714.000000	0.034144
713.000000	0.034052
712.000000	0.033942
711.000000	0.033863
710.000000	0.033795
709.000000	0.033613
708.000000	0.033504
707.000000	0.033529
706.000000	0.033453
705.000000	0.033285
704.000000	0.033195
703.000000	0.033049
702.000000	0.032826
701.000000	0.032690
700.000000	0.032609
699.000000	0.032529
698.000000	0.032372
697.000000	0.032253
696.000000	0.032181
695.000000	0.032129
694.000000	0.032114
693.000000	0.032078
692.000000	0.032032
691.000000	0.031943
690.000000	0.031899
689.000000	0.031988
688.000000	0.031996
687.000000	0.031958
686.000000	0.032031
685.000000	0.032058
684.000000	0.032045
683.000000	0.032091
682.000000	0.032075
681.000000	0.032086
680.000000	0.032126
679.000000	0.032165
678.000000	0.032200
677.000000	0.032209
676.000000	0.032229
675.000000	0.032209
674.000000	0.032213
673.000000	0.032213
672.000000	0.032318
671.000000	0.032380
670.000000	0.032359
669.000000	0.032363
668.000000	0.032395
667.000000	0.032375
666.000000	0.032329
665.000000	0.032216
664.000000	0.032249
663.000000	0.032189
662.000000	0.032132
661.000000	0.032092
660.000000	0.032064
659.000000	0.032050
658.000000	0.031976
657.000000	0.031920
656.000000	0.031920
655.000000	0.031935
654.000000	0.031962
653.000000	0.031930
652.000000	0.031906
651.000000	0.031936
650.000000	0.031986
649.000000	0.032030
648.000000	0.032175
647.000000	0.032156
646.000000	0.032221
645.000000	0.032324
644.000000	0.032492
643.000000	0.032477
642.000000	0.032543
641.000000	0.032655
640.000000	0.032736
639.000000	0.032796
638.000000	0.032885
637.000000	0.032910
636.000000	0.032886
635.000000	0.032916
634.000000	0.032953
633.000000	0.033032
632.000000	0.033110
631.000000	0.033067
630.000000	0.033017
629.000000	0.032977
628.000000	0.032905
627.000000	0.032940
626.000000	0.032938
625.000000	0.032877
624.000000	0.032908
623.000000	0.032874
622.000000	0.032848
621.000000	0.032763
620.000000	0.032894
619.000000	0.032741
618.000000	0.032725
617.000000	0.032745
616.000000	0.032710
615.000000	0.032760
614.000000	0.032833
613.000000	0.032734
612.000000	0.032742
611.000000	0.032835
610.000000	0.032807
609.000000	0.032835
608.000000	0.032851
607.000000	0.032989
606.000000	0.032970
605.000000	0.033066
604.000000	0.032977
603.000000	0.032957
602.000000	0.033046
601.000000	0.033035
600.000000	0.033105
599.000000	0.033151
598.000000	0.032961
597.000000	0.033058
596.000000	0.033115
595.000000	0.033221
594.000000	0.033154
593.000000	0.033231
592.000000	0.033247
591.000000	0.033266
590.000000	0.033278
589.000000	0.033314
588.000000	0.033296
587.000000	0.033378
586.000000	0.033435
585.000000	0.033527
584.000000	0.033709
583.000000	0.033633
582.000000	0.033662
581.000000	0.033724
580.000000	0.033826
579.000000	0.033797
578.000000	0.033870
577.000000	0.033987
576.000000	0.033987
575.000000	0.034059
574.000000	0.034076
573.000000	0.034095
572.000000	0.034223
571.000000	0.034259
570.000000	0.034329
569.000000	0.034422
568.000000	0.034512
567.000000	0.034466
566.000000	0.034498
565.000000	0.034594
564.000000	0.034660
563.000000	0.034720
562.000000	0.034754
561.000000	0.034744
560.000000	0.034785
559.000000	0.034821
558.000000	0.034929
557.000000	0.034921
556.000000	0.035014
555.000000	0.035025
554.000000	0.035042
553.000000	0.035079
552.000000	0.035126
551.000000	0.035128
550.000000	0.035200
549.000000	0.035184
548.000000	0.035101
547.000000	0.035152
546.000000	0.035184
545.000000	0.035198
544.000000	0.035157
543.000000	0.035155
542.000000	0.035176
541.000000	0.035154
540.000000	0.035178
539.000000	0.035191
538.000000	0.035125
537.000000	0.035141
536.000000	0.035168
535.000000	0.035178
534.000000	0.035116
533.000000	0.035105
532.000000	0.035096
531.000000	0.035060
530.000000	0.035046
529.000000	0.035082
528.000000	0.034974
527.000000	0.035002
526.000000	0.035068
525.000000	0.034995
524.000000	0.034933
523.000000	0.034877
522.000000	0.034894
521.000000	0.034870
520.000000	0.034833
519.000000	0.034821
518.000000	0.034866
517.000000	0.034848
516.000000	0.034831
515.000000	0.034886
514.000000	0.034880
513.000000	0.034872
512.000000	0.034903
511.000000	0.034965
510.000000	0.034963
509.000000	0.035005
508.000000	0.035051
507.000000	0.035072
506.000000	0.035077
505.000000	0.035145
504.000000	0.035244
503.000000	0.035291
502.000000	0.035297
501.000000	0.035299
500.000000	0.035380
499.000000	0.035506
498.000000	0.035565
497.000000	0.035650
496.000000	0.035754
495.000000	0.035807
494.000000	0.035861
493.000000	0.035983
492.000000	0.036057
491.000000	0.036137
490.000000	0.036252
489.000000	0.036320
488.000000	0.036383
487.000000	0.036491
486.000000	0.036644
485.000000	0.036775
484.000000	0.036789
483.000000	0.036828
482.000000	0.036987
481.000000	0.037079
480.000000	0.037072
479.000000	0.037153
478.000000	0.037277
477.000000	0.037334
476.000000	0.037340
475.000000	0.037492
474.000000	0.037607
473.000000	0.037673
472.000000	0.037805
471.000000	0.037838
470.000000	0.037933
469.000000	0.038052
468.000000	0.038163
467.000000	0.038254
466.000000	0.038353
465.000000	0.038526
464.000000	0.038630
463.000000	0.038793
462.000000	0.038903
461.000000	0.039008
460.000000	0.039167
459.000000	0.039210
458.000000	0.039357
457.000000	0.039507
456.000000	0.039622
455.000000	0.039689
454.000000	0.039831
453.000000	0.039908
452.000000	0.039987
451.000000	0.040077
450.000000	0.040145
449.000000	0.040314
448.000000	0.040370
447.000000	0.040425
446.000000	0.040649
445.000000	0.040800
444.000000	0.040891
443.000000	0.040938
442.000000	0.041108
441.000000	0.041172
440.000000	0.041271
439.000000	0.041341
438.000000	0.041439
437.000000	0.041447
436.000000	0.041524
435.000000	0.041578
434.000000	0.041739
433.000000	0.041791
432.000000	0.041842
431.000000	0.041903
430.000000	0.041993
429.000000	0.042009
428.000000	0.042096
427.000000	0.042239
426.000000	0.042250
425.000000	0.042371
424.000000	0.042406
423.000000	0.042427
422.000000	0.042439
421.000000	0.042510
420.000000	0.042604
419.000000	0.042684
418.000000	0.042692
417.000000	0.042759
416.000000	0.042873
415.000000	0.042939
414.000000	0.042989
413.000000	0.043116
412.000000	0.043206
411.000000	0.043309
410.000000	0.043376
409.000000	0.043567
408.000000	0.043678
407.000000	0.043783
406.000000	0.043948
405.000000	0.044028
404.000000	0.044095
403.000000	0.044275
402.000000	0.044529
401.000000	0.044628
400.000000	0.044680
399.000000	0.044928
398.000000	0.045080
397.000000	0.045264
396.000000	0.045433
395.000000	0.045577
394.000000	0.045769
393.000000	0.045870
392.000000	0.046064
391.000000	0.046375
390.000000	0.046571
389.000000	0.046742
388.000000	0.047006
387.000000	0.046992
386.000000	0.047296
385.000000	0.047564
384.000000	0.047723
383.000000	0.047976
382.000000	0.048073
381.000000	0.048233
380.000000	0.048637
379.000000	0.048733
378.000000	0.049040
377.000000	0.049150
376.000000	0.049488
375.000000	0.049780
374.000000	0.050036
373.000000	0.050423
372.000000	0.050639
371.000000	0.050922
370.000000	0.051308
369.000000	0.051681
368.000000	0.051953
367.000000	0.052294
366.000000	0.052515
365.000000	0.052842
364.000000	0.053156
363.000000	0.053643
362.000000	0.053878
361.000000	0.054267
360.000000	0.054667
359.000000	0.055054
358.000000	0.055288
357.000000	0.055692
356.000000	0.056143
355.000000	0.056532
354.000000	0.056914
353.000000	0.057287
352.000000	0.057775
351.000000	0.058227
350.000000	0.058556
349.000000	0.059013
348.000000	0.059509
347.000000	0.059887
346.000000	0.060304
345.000000	0.060767
344.000000	0.061293
343.000000	0.061702
342.000000	0.062077
341.000000	0.062686
340.000000	0.063159
339.000000	0.063652
338.000000	0.064136
337.000000	0.064691
336.000000	0.065238
335.000000	0.065656
334.000000	0.066247
333.000000	0.066865
332.000000	0.067358
331.000000	0.068009
330.000000	0.068594
329.000000	0.069034
328.000000	0.069650
327.000000	0.070233
326.000000	0.070899
325.000000	0.071473
324.000000	0.072115
323.000000	0.072644
322.000000	0.073332
321.000000	0.074106
320.000000	0.074798
319.000000	0.075659
318.000000	0.076242
317.000000	0.076886
316.000000	0.077569
315.000000	0.078194
314.000000	0.079019
313.000000	0.080071
312.000000	0.080991
311.000000	0.081924
310.000000	0.082924
309.000000	0.083873
308.000000	0.084768
307.000000	0.085818
306.000000	0.086884
305.000000	0.088014
304.000000	0.089019
303.000000	0.090146
302.000000	0.091450
301.000000	0.092690
300.000000	0.093852
299.000000	0.095136
298.000000	0.096432
297.000000	0.097806
296.000000	0.099341
295.000000	0.100820
294.000000	0.102200
293.000000	0.103781
292.000000	0.105463
291.000000	0.107070
290.000000	0.108678
289.000000	0.110399
288.000000	0.112106
287.000000	0.113782
286.000000	0.115550
285.000000	0.117380
284.000000	0.119176
283.000000	0.120967
282.000000	0.122771
281.000000	0.124459
280.000000	0.126215
279.000000	0.127937
278.000000	0.129582
277.000000	0.131328
276.000000	0.133097
275.000000	0.134945
274.000000	0.136844
273.000000	0.138666
272.000000	0.140322
271.000000	0.142063
270.000000	0.143845
269.000000	0.145471
268.000000	0.147144
267.000000	0.149000
266.000000	0.150706
265.000000	0.152194
264.000000	0.153767
263.000000	0.155357
262.000000	0.156841
261.000000	0.158364
260.000000	0.159876
259.000000	0.161413
258.000000	0.162901
257.000000	0.164286
256.000000	0.165739
255.000000	0.167101
254.000000	0.168432
253.000000	0.169865
252.000000	0.171433
251.000000	0.172896
250.000000	0.174463
249.000000	0.176131
248.000000	0.177814
247.000000	0.179544
246.000000	0.181382
245.000000	0.183427
244.000000	0.185625
243.000000	0.187881
242.000000	0.190199
241.000000	0.192810
240.000000	0.195409
239.000000	0.198197
238.000000	0.201086
237.000000	0.204199
236.000000	0.207353
235.000000	0.210705
234.000000	0.214365
233.000000	0.217881
232.000000	0.221535
231.000000	0.225506
230.000000	0.229430
229.000000	0.233424
228.000000	0.237593
227.000000	0.242006
226.000000	0.246488
225.000000	0.251406
224.000000	0.256907
223.000000	0.263145
222.000000	0.270169
221.000000	0.278240
220.000000	0.287808
219.000000	0.299344
218.000000	0.313284
217.000000	0.330424
216.000000	0.351264
215.000000	0.377051
214.000000	0.408095
213.000000	0.446752
212.000000	0.493561
211.000000	0.550125
210.000000	0.617393
209.000000	0.696876
208.000000	0.790825
207.000000	0.902688
206.000000	1.035888
205.000000	1.194805
204.000000	1.386800
203.000000	1.622011
202.000000	1.913926
201.000000	2.284383
200.000000	2.767604
