PE UV       SUBTECH     SPECTRUM    ASCII       PEDS        4.00        
   -1
TV5-01A_1CM.Sample.Raw.asc
11/08/25
11:16:10.00
11/08/25
11:16:10.00
Hermanni Kaartokallio

200.000000
1
Lambda 650
650N8121101
PerkinElmer UV WinLab 6.0.2.0723 / 1.61.00 Lambda 650

0
0
2
0
0
UV/VIS
1
1
1
uv/vis/nir detector
0
0
0
0
Fix
 
0
0.24
0
0
0
 
 
 
0
 
0
319.2
0
Front
100
 
 
 
0
0
0
 
0
 
 
 
0
 
 
0
0
0
0
0
 
 
 
 
0
0
#HDR
-1
-1
#GR
nm
A
1.0
0.0
800.000000
-1.000000
601
8
1.445996
0.031590
#DATA
800.000000	0.039181
799.000000	0.039241
798.000000	0.039612
797.000000	0.039467
796.000000	0.039395
795.000000	0.039614
794.000000	0.039741
793.000000	0.039662
792.000000	0.039782
791.000000	0.039875
790.000000	0.039956
789.000000	0.039723
788.000000	0.039855
787.000000	0.040117
786.000000	0.040066
785.000000	0.040127
784.000000	0.040475
783.000000	0.040580
782.000000	0.040633
781.000000	0.040573
780.000000	0.040762
779.000000	0.040953
778.000000	0.041028
777.000000	0.041284
776.000000	0.041541
775.000000	0.041586
774.000000	0.041550
773.000000	0.041705
772.000000	0.041892
771.000000	0.041922
770.000000	0.042105
769.000000	0.042177
768.000000	0.042209
767.000000	0.042272
766.000000	0.042238
765.000000	0.042413
764.000000	0.042230
763.000000	0.042212
762.000000	0.042263
761.000000	0.042206
760.000000	0.042111
759.000000	0.042092
758.000000	0.042117
757.000000	0.042085
756.000000	0.042049
755.000000	0.042073
754.000000	0.042176
753.000000	0.042012
752.000000	0.042113
751.000000	0.042091
750.000000	0.041985
749.000000	0.041966
748.000000	0.042001
747.000000	0.041998
746.000000	0.041949
745.000000	0.041844
744.000000	0.041807
743.000000	0.041805
742.000000	0.041663
741.000000	0.041640
740.000000	0.041592
739.000000	0.041453
738.000000	0.041238
737.000000	0.041136
736.000000	0.040804
735.000000	0.040375
734.000000	0.040017
733.000000	0.039663
732.000000	0.039116
731.000000	0.038538
730.000000	0.038092
729.000000	0.037704
728.000000	0.037183
727.000000	0.036762
726.000000	0.036467
725.000000	0.036149
724.000000	0.035805
723.000000	0.035497
722.000000	0.035361
721.000000	0.035053
720.000000	0.034716
719.000000	0.034558
718.000000	0.034433
717.000000	0.034222
716.000000	0.034022
715.000000	0.033923
714.000000	0.033814
713.000000	0.033624
712.000000	0.033476
711.000000	0.033454
710.000000	0.033359
709.000000	0.033142
708.000000	0.033184
707.000000	0.033232
706.000000	0.033025
705.000000	0.032901
704.000000	0.032879
703.000000	0.032699
702.000000	0.032432
701.000000	0.032349
700.000000	0.032298
699.000000	0.032186
698.000000	0.032067
697.000000	0.031989
696.000000	0.031894
695.000000	0.031803
694.000000	0.031768
693.000000	0.031710
692.000000	0.031636
691.000000	0.031590
690.000000	0.031654
689.000000	0.031680
688.000000	0.031601
687.000000	0.031649
686.000000	0.031716
685.000000	0.031675
684.000000	0.031684
683.000000	0.031756
682.000000	0.031752
681.000000	0.031743
680.000000	0.031854
679.000000	0.031903
678.000000	0.031860
677.000000	0.031870
676.000000	0.031930
675.000000	0.031937
674.000000	0.031861
673.000000	0.031927
672.000000	0.032096
671.000000	0.032079
670.000000	0.031987
669.000000	0.032075
668.000000	0.032150
667.000000	0.032090
666.000000	0.032000
665.000000	0.031985
664.000000	0.031973
663.000000	0.031888
662.000000	0.031959
661.000000	0.032043
660.000000	0.031980
659.000000	0.031895
658.000000	0.031875
657.000000	0.031886
656.000000	0.031791
655.000000	0.031795
654.000000	0.031914
653.000000	0.031862
652.000000	0.031728
651.000000	0.031807
650.000000	0.032025
649.000000	0.032026
648.000000	0.032062
647.000000	0.032068
646.000000	0.032179
645.000000	0.032125
644.000000	0.032273
643.000000	0.032363
642.000000	0.032384
641.000000	0.032478
640.000000	0.032645
639.000000	0.032640
638.000000	0.032640
637.000000	0.032670
636.000000	0.032751
635.000000	0.032870
634.000000	0.032755
633.000000	0.032842
632.000000	0.032939
631.000000	0.032916
630.000000	0.032873
629.000000	0.032879
628.000000	0.032930
627.000000	0.032821
626.000000	0.032814
625.000000	0.032881
624.000000	0.032805
623.000000	0.032724
622.000000	0.032706
621.000000	0.032657
620.000000	0.032781
619.000000	0.032654
618.000000	0.032784
617.000000	0.032766
616.000000	0.032585
615.000000	0.032705
614.000000	0.032814
613.000000	0.032685
612.000000	0.032708
611.000000	0.032845
610.000000	0.032827
609.000000	0.032815
608.000000	0.032813
607.000000	0.033025
606.000000	0.033044
605.000000	0.033036
604.000000	0.032944
603.000000	0.033105
602.000000	0.033186
601.000000	0.033113
600.000000	0.033252
599.000000	0.033277
598.000000	0.033197
597.000000	0.033197
596.000000	0.033322
595.000000	0.033399
594.000000	0.033266
593.000000	0.033479
592.000000	0.033455
591.000000	0.033413
590.000000	0.033438
589.000000	0.033596
588.000000	0.033634
587.000000	0.033632
586.000000	0.033689
585.000000	0.033771
584.000000	0.033896
583.000000	0.033884
582.000000	0.033955
581.000000	0.034121
580.000000	0.034122
579.000000	0.034033
578.000000	0.034224
577.000000	0.034322
576.000000	0.034288
575.000000	0.034394
574.000000	0.034469
573.000000	0.034426
572.000000	0.034490
571.000000	0.034648
570.000000	0.034688
569.000000	0.034728
568.000000	0.034817
567.000000	0.034913
566.000000	0.034914
565.000000	0.034910
564.000000	0.035056
563.000000	0.035169
562.000000	0.035238
561.000000	0.035242
560.000000	0.035511
559.000000	0.035411
558.000000	0.035371
557.000000	0.035430
556.000000	0.035556
555.000000	0.035492
554.000000	0.035465
553.000000	0.035698
552.000000	0.035735
551.000000	0.035604
550.000000	0.035742
549.000000	0.035769
548.000000	0.035651
547.000000	0.035651
546.000000	0.035749
545.000000	0.035770
544.000000	0.035668
543.000000	0.035701
542.000000	0.035751
541.000000	0.035717
540.000000	0.035697
539.000000	0.035740
538.000000	0.035817
537.000000	0.035644
536.000000	0.035643
535.000000	0.035764
534.000000	0.035705
533.000000	0.035643
532.000000	0.035688
531.000000	0.035717
530.000000	0.035597
529.000000	0.035556
528.000000	0.035600
527.000000	0.035630
526.000000	0.035639
525.000000	0.035637
524.000000	0.035626
523.000000	0.035659
522.000000	0.035692
521.000000	0.035698
520.000000	0.035695
519.000000	0.035632
518.000000	0.035650
517.000000	0.035743
516.000000	0.035795
515.000000	0.035798
514.000000	0.035802
513.000000	0.035815
512.000000	0.035823
511.000000	0.035892
510.000000	0.036028
509.000000	0.036095
508.000000	0.035998
507.000000	0.036030
506.000000	0.036135
505.000000	0.036192
504.000000	0.036246
503.000000	0.036355
502.000000	0.036440
501.000000	0.036451
500.000000	0.036482
499.000000	0.036667
498.000000	0.036777
497.000000	0.036791
496.000000	0.036897
495.000000	0.037026
494.000000	0.037060
493.000000	0.037132
492.000000	0.037287
491.000000	0.037388
490.000000	0.037424
489.000000	0.037515
488.000000	0.037652
487.000000	0.037789
486.000000	0.037918
485.000000	0.038059
484.000000	0.038183
483.000000	0.038225
482.000000	0.038300
481.000000	0.038445
480.000000	0.038504
479.000000	0.038545
478.000000	0.038689
477.000000	0.038831
476.000000	0.038885
475.000000	0.038974
474.000000	0.039098
473.000000	0.039294
472.000000	0.039406
471.000000	0.039417
470.000000	0.039582
469.000000	0.039739
468.000000	0.039808
467.000000	0.039945
466.000000	0.040158
465.000000	0.040272
464.000000	0.040380
463.000000	0.040668
462.000000	0.040776
461.000000	0.040887
460.000000	0.041072
459.000000	0.041166
458.000000	0.041297
457.000000	0.041447
456.000000	0.041634
455.000000	0.041854
454.000000	0.041943
453.000000	0.042007
452.000000	0.042167
451.000000	0.042291
450.000000	0.042365
449.000000	0.042586
448.000000	0.042795
447.000000	0.042794
446.000000	0.042980
445.000000	0.043267
444.000000	0.043366
443.000000	0.043472
442.000000	0.043544
441.000000	0.043635
440.000000	0.043762
439.000000	0.043914
438.000000	0.044076
437.000000	0.044277
436.000000	0.044329
435.000000	0.044353
434.000000	0.044635
433.000000	0.044743
432.000000	0.044772
431.000000	0.044872
430.000000	0.045071
429.000000	0.045172
428.000000	0.045227
427.000000	0.045459
426.000000	0.045560
425.000000	0.045679
424.000000	0.045815
423.000000	0.045993
422.000000	0.046040
421.000000	0.046114
420.000000	0.046281
419.000000	0.046517
418.000000	0.046538
417.000000	0.046546
416.000000	0.046844
415.000000	0.047087
414.000000	0.047155
413.000000	0.047301
412.000000	0.047534
411.000000	0.047692
410.000000	0.047836
409.000000	0.048115
408.000000	0.048384
407.000000	0.048582
406.000000	0.048737
405.000000	0.048923
404.000000	0.049167
403.000000	0.049340
402.000000	0.049761
401.000000	0.050031
400.000000	0.050251
399.000000	0.050406
398.000000	0.050685
397.000000	0.051118
396.000000	0.051447
395.000000	0.051571
394.000000	0.052001
393.000000	0.052159
392.000000	0.052434
391.000000	0.052823
390.000000	0.053316
389.000000	0.053477
388.000000	0.053880
387.000000	0.054103
386.000000	0.054534
385.000000	0.054888
384.000000	0.055240
383.000000	0.055652
382.000000	0.055954
381.000000	0.056118
380.000000	0.056735
379.000000	0.057145
378.000000	0.057534
377.000000	0.057772
376.000000	0.058464
375.000000	0.058854
374.000000	0.059243
373.000000	0.059824
372.000000	0.060263
371.000000	0.060700
370.000000	0.061093
369.000000	0.061817
368.000000	0.062294
367.000000	0.062682
366.000000	0.063166
365.000000	0.063908
364.000000	0.064283
363.000000	0.064911
362.000000	0.065466
361.000000	0.066163
360.000000	0.066621
359.000000	0.067155
358.000000	0.067801
357.000000	0.068424
356.000000	0.068920
355.000000	0.069717
354.000000	0.070418
353.000000	0.070897
352.000000	0.071601
351.000000	0.072383
350.000000	0.072954
349.000000	0.073607
348.000000	0.074373
347.000000	0.074980
346.000000	0.075770
345.000000	0.076532
344.000000	0.077289
343.000000	0.078020
342.000000	0.078642
341.000000	0.079410
340.000000	0.080281
339.000000	0.081118
338.000000	0.081817
337.000000	0.082729
336.000000	0.083627
335.000000	0.084400
334.000000	0.085240
333.000000	0.086178
332.000000	0.087105
331.000000	0.088000
330.000000	0.088849
329.000000	0.089835
328.000000	0.090860
327.000000	0.091695
326.000000	0.092751
325.000000	0.093746
324.000000	0.094843
323.000000	0.095719
322.000000	0.096866
321.000000	0.098040
320.000000	0.099108
319.000000	0.100361
318.000000	0.101428
317.000000	0.102427
316.000000	0.103705
315.000000	0.104968
314.000000	0.106165
313.000000	0.107596
312.000000	0.108996
311.000000	0.110341
310.000000	0.111752
309.000000	0.113289
308.000000	0.114771
307.000000	0.116293
306.000000	0.117893
305.000000	0.119544
304.000000	0.121055
303.000000	0.122773
302.000000	0.124767
301.000000	0.126641
300.000000	0.128483
299.000000	0.130375
298.000000	0.132432
297.000000	0.134551
296.000000	0.136753
295.000000	0.139000
294.000000	0.141264
293.000000	0.143615
292.000000	0.146032
291.000000	0.148515
290.000000	0.151091
289.000000	0.153630
288.000000	0.156157
287.000000	0.158822
286.000000	0.161388
285.000000	0.163942
284.000000	0.166662
283.000000	0.169272
282.000000	0.171748
281.000000	0.174242
280.000000	0.176786
279.000000	0.179200
278.000000	0.181526
277.000000	0.183948
276.000000	0.186448
275.000000	0.188864
274.000000	0.191241
273.000000	0.193689
272.000000	0.195990
271.000000	0.198159
270.000000	0.200415
269.000000	0.202652
268.000000	0.204854
267.000000	0.207070
266.000000	0.209322
265.000000	0.211431
264.000000	0.213416
263.000000	0.215428
262.000000	0.217514
261.000000	0.219496
260.000000	0.221450
259.000000	0.223439
258.000000	0.225486
257.000000	0.227419
256.000000	0.229375
255.000000	0.231373
254.000000	0.233394
253.000000	0.235348
252.000000	0.237457
251.000000	0.239670
250.000000	0.241908
249.000000	0.244239
248.000000	0.246610
247.000000	0.249215
246.000000	0.251818
245.000000	0.254631
244.000000	0.257724
243.000000	0.261002
242.000000	0.264260
241.000000	0.267733
240.000000	0.271448
239.000000	0.275212
238.000000	0.279170
237.000000	0.283373
236.000000	0.287630
235.000000	0.292034
234.000000	0.296540
233.000000	0.301164
232.000000	0.306050
231.000000	0.310946
230.000000	0.315809
229.000000	0.320830
228.000000	0.325888
227.000000	0.331101
226.000000	0.336499
225.000000	0.342217
224.000000	0.348126
223.000000	0.354462
222.000000	0.361181
221.000000	0.368266
220.000000	0.376248
219.000000	0.385240
218.000000	0.394884
217.000000	0.406050
216.000000	0.418704
215.000000	0.433325
214.000000	0.450313
213.000000	0.470184
212.000000	0.492816
211.000000	0.519580
210.000000	0.550107
209.000000	0.585362
208.000000	0.626219
207.000000	0.673595
206.000000	0.729052
205.000000	0.794842
204.000000	0.873449
203.000000	0.969661
202.000000	1.090095
201.000000	1.244798
200.000000	1.445996
