PE UV       SUBTECH     SPECTRUM    ASCII       PEDS        4.00        
   -1
TV5-04B_1CM.Sample.Raw.asc
11/08/25
10:21:31.00
11/08/25
10:21:31.00
Hermanni Kaartokallio

200.000000
1
Lambda 650
650N8121101
PerkinElmer UV WinLab 6.0.2.0723 / 1.61.00 Lambda 650

0
0
2
0
0
UV/VIS
1
1
1
uv/vis/nir detector
0
0
0
0
Fix
 
0
0.24
0
0
0
 
 
 
0
 
0
319.2
0
Front
100
 
 
 
0
0
0
 
0
 
 
 
0
 
 
0
0
0
0
0
 
 
 
 
0
0
#HDR
-1
-1
#GR
nm
A
1.0
0.0
800.000000
-1.000000
601
8
3.051439
0.031982
#DATA
800.000000	0.039954
799.000000	0.039980
798.000000	0.040136
797.000000	0.040139
796.000000	0.040187
795.000000	0.040267
794.000000	0.040358
793.000000	0.040254
792.000000	0.040344
791.000000	0.040461
790.000000	0.040687
789.000000	0.040576
788.000000	0.040560
787.000000	0.040739
786.000000	0.040775
785.000000	0.040859
784.000000	0.041108
783.000000	0.041148
782.000000	0.041155
781.000000	0.041289
780.000000	0.041485
779.000000	0.041679
778.000000	0.041673
777.000000	0.041941
776.000000	0.042110
775.000000	0.042262
774.000000	0.042292
773.000000	0.042453
772.000000	0.042632
771.000000	0.042732
770.000000	0.042912
769.000000	0.042919
768.000000	0.042967
767.000000	0.042980
766.000000	0.042978
765.000000	0.043050
764.000000	0.043045
763.000000	0.042928
762.000000	0.042882
761.000000	0.042877
760.000000	0.042858
759.000000	0.042799
758.000000	0.042715
757.000000	0.042775
756.000000	0.042651
755.000000	0.042612
754.000000	0.042694
753.000000	0.042609
752.000000	0.042668
751.000000	0.042731
750.000000	0.042674
749.000000	0.042633
748.000000	0.042583
747.000000	0.042607
746.000000	0.042709
745.000000	0.042632
744.000000	0.042509
743.000000	0.042536
742.000000	0.042440
741.000000	0.042318
740.000000	0.042242
739.000000	0.042107
738.000000	0.041888
737.000000	0.041713
736.000000	0.041411
735.000000	0.041009
734.000000	0.040640
733.000000	0.040163
732.000000	0.039643
731.000000	0.039119
730.000000	0.038567
729.000000	0.038099
728.000000	0.037662
727.000000	0.037241
726.000000	0.036847
725.000000	0.036564
724.000000	0.036307
723.000000	0.035964
722.000000	0.035697
721.000000	0.035438
720.000000	0.035227
719.000000	0.034989
718.000000	0.034838
717.000000	0.034707
716.000000	0.034487
715.000000	0.034291
714.000000	0.034211
713.000000	0.034069
712.000000	0.033921
711.000000	0.033852
710.000000	0.033771
709.000000	0.033617
708.000000	0.033570
707.000000	0.033607
706.000000	0.033490
705.000000	0.033329
704.000000	0.033237
703.000000	0.033086
702.000000	0.032890
701.000000	0.032748
700.000000	0.032622
699.000000	0.032522
698.000000	0.032437
697.000000	0.032328
696.000000	0.032239
695.000000	0.032258
694.000000	0.032265
693.000000	0.032186
692.000000	0.032097
691.000000	0.032044
690.000000	0.032023
689.000000	0.032112
688.000000	0.032069
687.000000	0.031999
686.000000	0.032064
685.000000	0.032081
684.000000	0.032070
683.000000	0.032090
682.000000	0.032072
681.000000	0.032060
680.000000	0.032096
679.000000	0.032147
678.000000	0.032145
677.000000	0.032163
676.000000	0.032147
675.000000	0.032106
674.000000	0.032113
673.000000	0.032130
672.000000	0.032160
671.000000	0.032164
670.000000	0.032111
669.000000	0.032147
668.000000	0.032207
667.000000	0.032146
666.000000	0.032106
665.000000	0.032269
664.000000	0.032412
663.000000	0.032392
662.000000	0.032332
661.000000	0.032337
660.000000	0.032310
659.000000	0.032251
658.000000	0.032149
657.000000	0.032175
656.000000	0.032140
655.000000	0.032064
654.000000	0.032129
653.000000	0.032076
652.000000	0.031982
651.000000	0.032018
650.000000	0.032168
649.000000	0.032234
648.000000	0.032262
647.000000	0.032249
646.000000	0.032316
645.000000	0.032405
644.000000	0.032507
643.000000	0.032484
642.000000	0.032530
641.000000	0.032641
640.000000	0.032724
639.000000	0.032846
638.000000	0.032897
637.000000	0.032902
636.000000	0.032890
635.000000	0.033134
634.000000	0.033162
633.000000	0.033109
632.000000	0.033243
631.000000	0.033076
630.000000	0.033032
629.000000	0.032946
628.000000	0.032920
627.000000	0.032919
626.000000	0.032933
625.000000	0.032947
624.000000	0.032945
623.000000	0.032882
622.000000	0.032845
621.000000	0.032822
620.000000	0.032926
619.000000	0.032809
618.000000	0.032834
617.000000	0.032923
616.000000	0.032817
615.000000	0.032774
614.000000	0.032822
613.000000	0.032789
612.000000	0.032880
611.000000	0.032875
610.000000	0.032842
609.000000	0.032910
608.000000	0.032910
607.000000	0.032947
606.000000	0.033005
605.000000	0.033103
604.000000	0.032911
603.000000	0.032937
602.000000	0.032950
601.000000	0.032929
600.000000	0.032985
599.000000	0.033006
598.000000	0.032812
597.000000	0.033002
596.000000	0.033043
595.000000	0.033008
594.000000	0.032938
593.000000	0.033027
592.000000	0.033004
591.000000	0.032968
590.000000	0.032973
589.000000	0.033038
588.000000	0.032868
587.000000	0.032897
586.000000	0.032957
585.000000	0.032945
584.000000	0.033097
583.000000	0.033163
582.000000	0.033101
581.000000	0.033280
580.000000	0.033232
579.000000	0.033168
578.000000	0.033449
577.000000	0.033440
576.000000	0.033511
575.000000	0.033510
574.000000	0.033542
573.000000	0.033450
572.000000	0.033621
571.000000	0.033673
570.000000	0.033698
569.000000	0.033854
568.000000	0.033829
567.000000	0.033812
566.000000	0.033888
565.000000	0.033924
564.000000	0.034046
563.000000	0.034110
562.000000	0.034107
561.000000	0.034046
560.000000	0.034079
559.000000	0.034207
558.000000	0.034272
557.000000	0.034296
556.000000	0.034348
555.000000	0.034292
554.000000	0.034234
553.000000	0.034385
552.000000	0.034466
551.000000	0.034411
550.000000	0.034484
549.000000	0.034488
548.000000	0.034374
547.000000	0.034396
546.000000	0.034434
545.000000	0.034382
544.000000	0.034384
543.000000	0.034346
542.000000	0.034356
541.000000	0.034512
540.000000	0.034497
539.000000	0.034389
538.000000	0.034350
537.000000	0.034300
536.000000	0.034247
535.000000	0.034391
534.000000	0.034346
533.000000	0.034289
532.000000	0.034230
531.000000	0.034206
530.000000	0.034189
529.000000	0.034173
528.000000	0.034127
527.000000	0.034157
526.000000	0.034214
525.000000	0.034161
524.000000	0.034034
523.000000	0.034020
522.000000	0.034045
521.000000	0.033987
520.000000	0.033990
519.000000	0.033967
518.000000	0.033954
517.000000	0.033973
516.000000	0.034028
515.000000	0.033981
514.000000	0.033929
513.000000	0.033966
512.000000	0.034000
511.000000	0.034061
510.000000	0.034032
509.000000	0.034059
508.000000	0.034053
507.000000	0.034036
506.000000	0.034052
505.000000	0.034088
504.000000	0.034122
503.000000	0.034140
502.000000	0.034140
501.000000	0.034175
500.000000	0.034211
499.000000	0.034278
498.000000	0.034348
497.000000	0.034381
496.000000	0.034454
495.000000	0.034468
494.000000	0.034523
493.000000	0.034652
492.000000	0.034715
491.000000	0.034758
490.000000	0.034870
489.000000	0.034902
488.000000	0.034855
487.000000	0.034955
486.000000	0.035116
485.000000	0.035188
484.000000	0.035223
483.000000	0.035291
482.000000	0.035309
481.000000	0.035362
480.000000	0.035428
479.000000	0.035474
478.000000	0.035526
477.000000	0.035627
476.000000	0.035615
475.000000	0.035655
474.000000	0.035769
473.000000	0.035876
472.000000	0.035973
471.000000	0.036007
470.000000	0.036035
469.000000	0.036145
468.000000	0.036276
467.000000	0.036409
466.000000	0.036440
465.000000	0.036528
464.000000	0.036551
463.000000	0.036697
462.000000	0.036864
461.000000	0.037022
460.000000	0.037209
459.000000	0.037174
458.000000	0.037168
457.000000	0.037297
456.000000	0.037469
455.000000	0.037650
454.000000	0.037663
453.000000	0.037685
452.000000	0.037699
451.000000	0.037804
450.000000	0.037934
449.000000	0.038111
448.000000	0.038209
447.000000	0.038251
446.000000	0.038289
445.000000	0.038485
444.000000	0.038577
443.000000	0.038611
442.000000	0.038702
441.000000	0.038723
440.000000	0.038730
439.000000	0.038869
438.000000	0.038939
437.000000	0.038984
436.000000	0.039057
435.000000	0.039059
434.000000	0.039104
433.000000	0.039203
432.000000	0.039241
431.000000	0.039295
430.000000	0.039377
429.000000	0.039331
428.000000	0.039290
427.000000	0.039457
426.000000	0.039510
425.000000	0.039569
424.000000	0.039640
423.000000	0.039546
422.000000	0.039468
421.000000	0.039575
420.000000	0.039577
419.000000	0.039668
418.000000	0.039726
417.000000	0.039632
416.000000	0.039602
415.000000	0.039736
414.000000	0.039797
413.000000	0.039917
412.000000	0.039980
411.000000	0.039946
410.000000	0.039973
409.000000	0.040197
408.000000	0.040203
407.000000	0.040313
406.000000	0.040550
405.000000	0.040460
404.000000	0.040445
403.000000	0.040618
402.000000	0.040756
401.000000	0.040938
400.000000	0.041112
399.000000	0.041116
398.000000	0.041147
397.000000	0.041382
396.000000	0.041596
395.000000	0.041712
394.000000	0.041863
393.000000	0.041834
392.000000	0.041851
391.000000	0.042136
390.000000	0.042433
389.000000	0.042564
388.000000	0.042812
387.000000	0.042685
386.000000	0.042876
385.000000	0.043204
384.000000	0.043300
383.000000	0.043543
382.000000	0.043633
381.000000	0.043639
380.000000	0.043897
379.000000	0.044139
378.000000	0.044387
377.000000	0.044418
376.000000	0.044692
375.000000	0.044926
374.000000	0.045189
373.000000	0.045446
372.000000	0.045638
371.000000	0.045807
370.000000	0.046051
369.000000	0.046409
368.000000	0.046699
367.000000	0.046904
366.000000	0.047049
365.000000	0.047421
364.000000	0.047605
363.000000	0.048054
362.000000	0.048254
361.000000	0.048507
360.000000	0.048784
359.000000	0.049055
358.000000	0.049304
357.000000	0.049665
356.000000	0.049972
355.000000	0.050312
354.000000	0.050702
353.000000	0.050994
352.000000	0.051398
351.000000	0.051806
350.000000	0.052073
349.000000	0.052339
348.000000	0.052781
347.000000	0.053090
346.000000	0.053382
345.000000	0.053857
344.000000	0.054278
343.000000	0.054539
342.000000	0.054876
341.000000	0.055222
340.000000	0.055671
339.000000	0.056108
338.000000	0.056412
337.000000	0.056951
336.000000	0.057339
335.000000	0.057708
334.000000	0.058198
333.000000	0.058694
332.000000	0.059055
331.000000	0.059533
330.000000	0.059971
329.000000	0.060385
328.000000	0.060925
327.000000	0.061310
326.000000	0.061833
325.000000	0.062257
324.000000	0.062847
323.000000	0.063295
322.000000	0.063844
321.000000	0.064438
320.000000	0.064979
319.000000	0.065660
318.000000	0.066130
317.000000	0.066666
316.000000	0.067300
315.000000	0.067958
314.000000	0.068625
313.000000	0.069329
312.000000	0.070071
311.000000	0.070853
310.000000	0.071589
309.000000	0.072301
308.000000	0.073115
307.000000	0.073880
306.000000	0.074639
305.000000	0.075582
304.000000	0.076500
303.000000	0.077516
302.000000	0.078581
301.000000	0.079535
300.000000	0.080470
299.000000	0.081566
298.000000	0.082639
297.000000	0.083768
296.000000	0.084976
295.000000	0.086215
294.000000	0.087443
293.000000	0.088743
292.000000	0.090076
291.000000	0.091415
290.000000	0.092833
289.000000	0.094234
288.000000	0.095601
287.000000	0.097032
286.000000	0.098457
285.000000	0.099990
284.000000	0.101538
283.000000	0.102942
282.000000	0.104459
281.000000	0.105935
280.000000	0.107323
279.000000	0.108805
278.000000	0.110279
277.000000	0.111724
276.000000	0.113236
275.000000	0.114824
274.000000	0.116418
273.000000	0.117929
272.000000	0.119380
271.000000	0.120900
270.000000	0.122378
269.000000	0.123777
268.000000	0.125245
267.000000	0.126790
266.000000	0.128233
265.000000	0.129609
264.000000	0.131027
263.000000	0.132328
262.000000	0.133607
261.000000	0.134964
260.000000	0.136289
259.000000	0.137595
258.000000	0.138824
257.000000	0.140018
256.000000	0.141312
255.000000	0.142556
254.000000	0.143790
253.000000	0.145033
252.000000	0.146361
251.000000	0.147577
250.000000	0.148861
249.000000	0.150313
248.000000	0.151715
247.000000	0.153313
246.000000	0.154917
245.000000	0.156613
244.000000	0.158501
243.000000	0.160478
242.000000	0.162513
241.000000	0.164681
240.000000	0.166899
239.000000	0.169329
238.000000	0.172005
237.000000	0.174665
236.000000	0.177405
235.000000	0.180363
234.000000	0.183415
233.000000	0.186578
232.000000	0.189862
231.000000	0.193577
230.000000	0.197026
229.000000	0.200723
228.000000	0.204606
227.000000	0.208870
226.000000	0.213255
225.000000	0.218127
224.000000	0.223802
223.000000	0.230241
222.000000	0.237500
221.000000	0.245881
220.000000	0.256154
219.000000	0.268464
218.000000	0.283640
217.000000	0.302147
216.000000	0.325092
215.000000	0.353442
214.000000	0.388444
213.000000	0.431550
212.000000	0.483851
211.000000	0.547122
210.000000	0.623230
209.000000	0.713242
208.000000	0.820170
207.000000	0.946889
206.000000	1.097812
205.000000	1.277756
204.000000	1.494908
203.000000	1.759729
202.000000	2.088471
201.000000	2.504338
200.000000	3.051439
