PE UV       SUBTECH     SPECTRUM    ASCII       PEDS        4.00        
   -1
TV5-04A_1CM.Sample.Raw.asc
11/08/25
12:07:26.00
11/08/25
12:07:26.00
Hermanni Kaartokallio

200.000000
1
Lambda 650
650N8121101
PerkinElmer UV WinLab 6.0.2.0723 / 1.61.00 Lambda 650

0
0
2
0
0
UV/VIS
1
1
1
uv/vis/nir detector
0
0
0
0
Fix
 
0
0.24
0
0
0
 
 
 
0
 
0
319.2
0
Front
100
 
 
 
0
0
0
 
0
 
 
 
0
 
 
0
0
0
0
0
 
 
 
 
0
0
#HDR
-1
-1
#GR
nm
A
1.0
0.0
800.000000
-1.000000
601
8
2.772341
0.031087
#DATA
800.000000	0.039115
799.000000	0.039290
798.000000	0.039448
797.000000	0.039481
796.000000	0.039346
795.000000	0.039463
794.000000	0.039654
793.000000	0.039576
792.000000	0.039631
791.000000	0.039881
790.000000	0.039869
789.000000	0.039884
788.000000	0.039988
787.000000	0.039987
786.000000	0.039955
785.000000	0.040152
784.000000	0.040305
783.000000	0.040463
782.000000	0.040491
781.000000	0.040455
780.000000	0.040756
779.000000	0.040926
778.000000	0.040957
777.000000	0.041081
776.000000	0.041325
775.000000	0.041555
774.000000	0.041484
773.000000	0.041625
772.000000	0.041788
771.000000	0.041942
770.000000	0.042068
769.000000	0.042103
768.000000	0.042208
767.000000	0.042208
766.000000	0.042079
765.000000	0.042223
764.000000	0.042164
763.000000	0.042068
762.000000	0.042053
761.000000	0.042083
760.000000	0.041948
759.000000	0.041822
758.000000	0.041788
757.000000	0.041811
756.000000	0.041670
755.000000	0.041734
754.000000	0.041717
753.000000	0.041627
752.000000	0.041558
751.000000	0.041584
750.000000	0.041685
749.000000	0.041635
748.000000	0.041475
747.000000	0.041419
746.000000	0.041338
745.000000	0.041211
744.000000	0.041241
743.000000	0.041300
742.000000	0.041249
741.000000	0.041100
740.000000	0.041059
739.000000	0.040991
738.000000	0.040828
737.000000	0.040679
736.000000	0.040302
735.000000	0.039898
734.000000	0.039561
733.000000	0.039126
732.000000	0.038625
731.000000	0.038149
730.000000	0.037557
729.000000	0.037074
728.000000	0.036635
727.000000	0.036236
726.000000	0.035903
725.000000	0.035685
724.000000	0.035375
723.000000	0.034980
722.000000	0.034780
721.000000	0.034540
720.000000	0.034314
719.000000	0.034092
718.000000	0.033932
717.000000	0.033763
716.000000	0.033539
715.000000	0.033378
714.000000	0.033252
713.000000	0.033104
712.000000	0.032964
711.000000	0.032911
710.000000	0.032804
709.000000	0.032625
708.000000	0.032634
707.000000	0.032647
706.000000	0.032433
705.000000	0.032289
704.000000	0.032175
703.000000	0.032043
702.000000	0.031947
701.000000	0.031752
700.000000	0.031578
699.000000	0.031498
698.000000	0.031351
697.000000	0.031251
696.000000	0.031204
695.000000	0.031149
694.000000	0.031087
693.000000	0.031119
692.000000	0.031211
691.000000	0.031227
690.000000	0.031241
689.000000	0.031362
688.000000	0.031372
687.000000	0.031403
686.000000	0.031462
685.000000	0.031434
684.000000	0.031420
683.000000	0.031472
682.000000	0.031541
681.000000	0.031597
680.000000	0.031751
679.000000	0.031753
678.000000	0.031706
677.000000	0.031723
676.000000	0.031845
675.000000	0.031696
674.000000	0.031684
673.000000	0.031773
672.000000	0.031831
671.000000	0.031869
670.000000	0.031831
669.000000	0.031841
668.000000	0.031888
667.000000	0.031861
666.000000	0.031805
665.000000	0.031717
664.000000	0.031716
663.000000	0.031798
662.000000	0.031786
661.000000	0.031755
660.000000	0.031761
659.000000	0.031682
658.000000	0.031683
657.000000	0.031730
656.000000	0.031657
655.000000	0.031554
654.000000	0.031592
653.000000	0.031599
652.000000	0.031621
651.000000	0.031703
650.000000	0.031750
649.000000	0.031801
648.000000	0.031852
647.000000	0.031854
646.000000	0.032011
645.000000	0.032135
644.000000	0.032225
643.000000	0.032157
642.000000	0.032219
641.000000	0.032354
640.000000	0.032496
639.000000	0.032608
638.000000	0.032640
637.000000	0.032643
636.000000	0.032708
635.000000	0.032784
634.000000	0.032827
633.000000	0.032925
632.000000	0.032869
631.000000	0.032853
630.000000	0.032828
629.000000	0.032862
628.000000	0.032854
627.000000	0.032850
626.000000	0.032786
625.000000	0.032765
624.000000	0.032783
623.000000	0.032725
622.000000	0.032685
621.000000	0.032566
620.000000	0.032590
619.000000	0.032597
618.000000	0.032577
617.000000	0.032594
616.000000	0.032602
615.000000	0.032563
614.000000	0.032644
613.000000	0.032508
612.000000	0.032606
611.000000	0.032618
610.000000	0.032599
609.000000	0.032716
608.000000	0.032653
607.000000	0.032712
606.000000	0.032738
605.000000	0.032814
604.000000	0.032871
603.000000	0.032886
602.000000	0.032807
601.000000	0.032801
600.000000	0.032846
599.000000	0.032946
598.000000	0.032847
597.000000	0.032934
596.000000	0.032888
595.000000	0.032949
594.000000	0.032894
593.000000	0.032917
592.000000	0.032964
591.000000	0.033033
590.000000	0.033147
589.000000	0.033068
588.000000	0.033051
587.000000	0.033143
586.000000	0.033210
585.000000	0.033268
584.000000	0.033435
583.000000	0.033441
582.000000	0.033425
581.000000	0.033466
580.000000	0.033560
579.000000	0.033565
578.000000	0.033682
577.000000	0.033725
576.000000	0.033787
575.000000	0.033869
574.000000	0.033955
573.000000	0.033833
572.000000	0.033809
571.000000	0.033768
570.000000	0.033837
569.000000	0.033914
568.000000	0.033978
567.000000	0.034006
566.000000	0.034014
565.000000	0.034056
564.000000	0.034140
563.000000	0.034186
562.000000	0.034321
561.000000	0.034295
560.000000	0.034382
559.000000	0.034446
558.000000	0.034511
557.000000	0.034471
556.000000	0.034505
555.000000	0.034523
554.000000	0.034554
553.000000	0.034667
552.000000	0.034732
551.000000	0.034662
550.000000	0.034725
549.000000	0.034684
548.000000	0.034653
547.000000	0.034684
546.000000	0.034686
545.000000	0.034660
544.000000	0.034592
543.000000	0.034665
542.000000	0.034767
541.000000	0.034628
540.000000	0.034563
539.000000	0.034519
538.000000	0.034490
537.000000	0.034454
536.000000	0.034543
535.000000	0.034584
534.000000	0.034459
533.000000	0.034421
532.000000	0.034415
531.000000	0.034388
530.000000	0.034359
529.000000	0.034389
528.000000	0.034291
527.000000	0.034319
526.000000	0.034344
525.000000	0.034330
524.000000	0.034305
523.000000	0.034328
522.000000	0.034314
521.000000	0.034317
520.000000	0.034301
519.000000	0.034358
518.000000	0.034468
517.000000	0.034462
516.000000	0.034379
515.000000	0.034370
514.000000	0.034361
513.000000	0.034412
512.000000	0.034540
511.000000	0.034613
510.000000	0.034587
509.000000	0.034624
508.000000	0.034628
507.000000	0.034668
506.000000	0.034714
505.000000	0.034794
504.000000	0.034809
503.000000	0.034876
502.000000	0.034877
501.000000	0.034898
500.000000	0.034982
499.000000	0.035032
498.000000	0.035053
497.000000	0.035147
496.000000	0.035263
495.000000	0.035358
494.000000	0.035500
493.000000	0.035610
492.000000	0.035602
491.000000	0.035646
490.000000	0.035731
489.000000	0.035828
488.000000	0.035921
487.000000	0.036025
486.000000	0.036172
485.000000	0.036289
484.000000	0.036380
483.000000	0.036519
482.000000	0.036637
481.000000	0.036629
480.000000	0.036625
479.000000	0.036722
478.000000	0.036813
477.000000	0.036878
476.000000	0.036984
475.000000	0.037059
474.000000	0.037108
473.000000	0.037189
472.000000	0.037303
471.000000	0.037382
470.000000	0.037545
469.000000	0.037649
468.000000	0.037701
467.000000	0.037767
466.000000	0.037879
465.000000	0.038014
464.000000	0.038159
463.000000	0.038291
462.000000	0.038357
461.000000	0.038475
460.000000	0.038584
459.000000	0.038658
458.000000	0.038850
457.000000	0.038936
456.000000	0.039043
455.000000	0.039192
454.000000	0.039331
453.000000	0.039489
452.000000	0.039403
451.000000	0.039469
450.000000	0.039600
449.000000	0.039788
448.000000	0.039860
447.000000	0.039890
446.000000	0.040173
445.000000	0.040293
444.000000	0.040336
443.000000	0.040408
442.000000	0.040440
441.000000	0.040495
440.000000	0.040661
439.000000	0.040737
438.000000	0.040838
437.000000	0.040863
436.000000	0.040946
435.000000	0.041002
434.000000	0.041192
433.000000	0.041196
432.000000	0.041199
431.000000	0.041292
430.000000	0.041403
429.000000	0.041419
428.000000	0.041486
427.000000	0.041610
426.000000	0.041642
425.000000	0.041698
424.000000	0.041790
423.000000	0.041835
422.000000	0.041834
421.000000	0.041877
420.000000	0.041977
419.000000	0.041999
418.000000	0.041999
417.000000	0.042084
416.000000	0.042228
415.000000	0.042233
414.000000	0.042362
413.000000	0.042452
412.000000	0.042532
411.000000	0.042629
410.000000	0.042833
409.000000	0.042936
408.000000	0.042998
407.000000	0.043144
406.000000	0.043262
405.000000	0.043294
404.000000	0.043455
403.000000	0.043488
402.000000	0.043791
401.000000	0.043895
400.000000	0.044033
399.000000	0.044247
398.000000	0.044466
397.000000	0.044530
396.000000	0.044705
395.000000	0.044771
394.000000	0.045046
393.000000	0.045117
392.000000	0.045362
391.000000	0.045591
390.000000	0.045772
389.000000	0.045935
388.000000	0.046234
387.000000	0.046262
386.000000	0.046611
385.000000	0.046761
384.000000	0.046918
383.000000	0.047150
382.000000	0.047249
381.000000	0.047366
380.000000	0.047845
379.000000	0.047954
378.000000	0.048139
377.000000	0.048361
376.000000	0.048610
375.000000	0.048941
374.000000	0.049153
373.000000	0.049512
372.000000	0.049673
371.000000	0.050042
370.000000	0.050427
369.000000	0.050653
368.000000	0.051073
367.000000	0.051320
366.000000	0.051590
365.000000	0.051888
364.000000	0.052189
363.000000	0.052553
362.000000	0.052864
361.000000	0.053242
360.000000	0.053662
359.000000	0.053996
358.000000	0.054237
357.000000	0.054647
356.000000	0.055057
355.000000	0.055520
354.000000	0.055940
353.000000	0.056204
352.000000	0.056681
351.000000	0.057147
350.000000	0.057430
349.000000	0.057817
348.000000	0.058376
347.000000	0.058701
346.000000	0.059190
345.000000	0.059601
344.000000	0.060078
343.000000	0.060433
342.000000	0.060809
341.000000	0.061417
340.000000	0.061854
339.000000	0.062335
338.000000	0.062820
337.000000	0.063364
336.000000	0.063813
335.000000	0.064275
334.000000	0.064990
333.000000	0.065442
332.000000	0.065971
331.000000	0.066566
330.000000	0.067110
329.000000	0.067539
328.000000	0.068186
327.000000	0.068775
326.000000	0.069348
325.000000	0.069890
324.000000	0.070569
323.000000	0.071224
322.000000	0.071874
321.000000	0.072496
320.000000	0.073175
319.000000	0.073945
318.000000	0.074632
317.000000	0.075319
316.000000	0.076077
315.000000	0.076860
314.000000	0.077705
313.000000	0.078617
312.000000	0.079467
311.000000	0.080460
310.000000	0.081624
309.000000	0.082546
308.000000	0.083471
307.000000	0.084549
306.000000	0.085689
305.000000	0.086984
304.000000	0.088144
303.000000	0.089423
302.000000	0.090786
301.000000	0.092088
300.000000	0.093359
299.000000	0.094685
298.000000	0.096062
297.000000	0.097486
296.000000	0.099032
295.000000	0.100532
294.000000	0.101972
293.000000	0.103563
292.000000	0.105227
291.000000	0.106833
290.000000	0.108407
289.000000	0.110091
288.000000	0.111792
287.000000	0.113446
286.000000	0.115105
285.000000	0.116851
284.000000	0.118615
283.000000	0.120208
282.000000	0.121881
281.000000	0.123671
280.000000	0.125356
279.000000	0.126908
278.000000	0.128488
277.000000	0.130208
276.000000	0.131932
275.000000	0.133605
274.000000	0.135410
273.000000	0.137192
272.000000	0.138688
271.000000	0.140317
270.000000	0.142110
269.000000	0.143676
268.000000	0.145282
267.000000	0.147029
266.000000	0.148573
265.000000	0.150050
264.000000	0.151621
263.000000	0.153126
262.000000	0.154624
261.000000	0.156046
260.000000	0.157524
259.000000	0.158995
258.000000	0.160432
257.000000	0.161864
256.000000	0.163393
255.000000	0.164719
254.000000	0.166035
253.000000	0.167449
252.000000	0.168970
251.000000	0.170362
250.000000	0.171933
249.000000	0.173556
248.000000	0.175286
247.000000	0.176941
246.000000	0.178686
245.000000	0.180754
244.000000	0.182946
243.000000	0.185129
242.000000	0.187394
241.000000	0.189886
240.000000	0.192407
239.000000	0.195193
238.000000	0.198171
237.000000	0.201175
236.000000	0.204189
235.000000	0.207642
234.000000	0.211092
233.000000	0.214620
232.000000	0.218357
231.000000	0.222273
230.000000	0.225991
229.000000	0.230065
228.000000	0.234037
227.000000	0.238384
226.000000	0.242892
225.000000	0.247675
224.000000	0.253136
223.000000	0.259270
222.000000	0.266131
221.000000	0.274007
220.000000	0.283671
219.000000	0.295074
218.000000	0.308783
217.000000	0.325618
216.000000	0.346554
215.000000	0.372112
214.000000	0.403386
213.000000	0.442093
212.000000	0.488986
211.000000	0.545341
210.000000	0.612643
209.000000	0.692260
208.000000	0.786871
207.000000	0.899136
206.000000	1.032828
205.000000	1.191818
204.000000	1.384222
203.000000	1.620146
202.000000	1.914554
201.000000	2.285939
200.000000	2.772341
