PE UV       SUBTECH     SPECTRUM    ASCII       PEDS        4.00        
   -1
TV5-05A_1CM.Sample.Raw.asc
11/08/25
10:26:31.00
11/08/25
10:26:31.00
Hermanni Kaartokallio

200.000000
1
Lambda 650
650N8121101
PerkinElmer UV WinLab 6.0.2.0723 / 1.61.00 Lambda 650

0
0
2
0
0
UV/VIS
1
1
1
uv/vis/nir detector
0
0
0
0
Fix
 
0
0.24
0
0
0
 
 
 
0
 
0
319.2
0
Front
100
 
 
 
0
0
0
 
0
 
 
 
0
 
 
0
0
0
0
0
 
 
 
 
0
0
#HDR
-1
-1
#GR
nm
A
1.0
0.0
800.000000
-1.000000
601
8
2.790997
0.032634
#DATA
800.000000	0.040535
799.000000	0.040771
798.000000	0.040816
797.000000	0.040805
796.000000	0.040893
795.000000	0.041029
794.000000	0.041155
793.000000	0.041026
792.000000	0.041286
791.000000	0.041294
790.000000	0.041401
789.000000	0.041365
788.000000	0.041484
787.000000	0.041532
786.000000	0.041518
785.000000	0.041640
784.000000	0.042011
783.000000	0.041966
782.000000	0.042021
781.000000	0.042089
780.000000	0.042358
779.000000	0.042468
778.000000	0.042642
777.000000	0.042869
776.000000	0.042976
775.000000	0.043182
774.000000	0.043286
773.000000	0.043392
772.000000	0.043488
771.000000	0.043693
770.000000	0.043897
769.000000	0.043858
768.000000	0.043857
767.000000	0.043985
766.000000	0.043995
765.000000	0.044033
764.000000	0.043953
763.000000	0.043957
762.000000	0.043892
761.000000	0.043916
760.000000	0.043761
759.000000	0.043725
758.000000	0.043649
757.000000	0.043626
756.000000	0.043620
755.000000	0.043596
754.000000	0.043640
753.000000	0.043558
752.000000	0.043602
751.000000	0.043478
750.000000	0.043430
749.000000	0.043377
748.000000	0.043421
747.000000	0.043440
746.000000	0.043395
745.000000	0.043405
744.000000	0.043369
743.000000	0.043279
742.000000	0.043250
741.000000	0.043216
740.000000	0.043106
739.000000	0.042901
738.000000	0.042711
737.000000	0.042549
736.000000	0.042226
735.000000	0.041778
734.000000	0.041456
733.000000	0.041039
732.000000	0.040455
731.000000	0.039934
730.000000	0.039366
729.000000	0.038856
728.000000	0.038413
727.000000	0.038073
726.000000	0.037758
725.000000	0.037394
724.000000	0.037112
723.000000	0.036814
722.000000	0.036529
721.000000	0.036258
720.000000	0.036080
719.000000	0.035895
718.000000	0.035665
717.000000	0.035488
716.000000	0.035387
715.000000	0.035277
714.000000	0.035044
713.000000	0.034863
712.000000	0.034836
711.000000	0.034764
710.000000	0.034614
709.000000	0.034517
708.000000	0.034543
707.000000	0.034470
706.000000	0.034358
705.000000	0.034332
704.000000	0.034229
703.000000	0.034026
702.000000	0.033874
701.000000	0.033794
700.000000	0.033655
699.000000	0.033534
698.000000	0.033467
697.000000	0.033364
696.000000	0.033229
695.000000	0.033203
694.000000	0.033248
693.000000	0.033199
692.000000	0.033115
691.000000	0.033076
690.000000	0.033072
689.000000	0.033100
688.000000	0.033084
687.000000	0.033059
686.000000	0.033071
685.000000	0.033083
684.000000	0.033129
683.000000	0.033180
682.000000	0.033115
681.000000	0.033117
680.000000	0.033191
679.000000	0.033172
678.000000	0.033163
677.000000	0.033274
676.000000	0.033253
675.000000	0.033122
674.000000	0.033109
673.000000	0.033244
672.000000	0.033269
671.000000	0.033257
670.000000	0.033225
669.000000	0.033218
668.000000	0.033257
667.000000	0.033248
666.000000	0.033201
665.000000	0.033111
664.000000	0.033037
663.000000	0.033041
662.000000	0.033035
661.000000	0.033016
660.000000	0.032953
659.000000	0.032947
658.000000	0.032908
657.000000	0.032824
656.000000	0.032808
655.000000	0.032824
654.000000	0.032852
653.000000	0.032736
652.000000	0.032634
651.000000	0.032784
650.000000	0.032842
649.000000	0.032891
648.000000	0.032995
647.000000	0.032971
646.000000	0.032935
645.000000	0.033021
644.000000	0.033205
643.000000	0.033265
642.000000	0.033270
641.000000	0.033346
640.000000	0.033449
639.000000	0.033479
638.000000	0.033533
637.000000	0.033548
636.000000	0.033500
635.000000	0.033582
634.000000	0.033553
633.000000	0.033665
632.000000	0.033671
631.000000	0.033657
630.000000	0.033669
629.000000	0.033709
628.000000	0.033602
627.000000	0.033588
626.000000	0.033633
625.000000	0.033627
624.000000	0.033471
623.000000	0.033537
622.000000	0.033530
621.000000	0.033421
620.000000	0.033526
619.000000	0.033441
618.000000	0.033492
617.000000	0.033489
616.000000	0.033443
615.000000	0.033487
614.000000	0.033495
613.000000	0.033410
612.000000	0.033477
611.000000	0.033546
610.000000	0.033518
609.000000	0.033538
608.000000	0.033567
607.000000	0.033672
606.000000	0.033711
605.000000	0.033768
604.000000	0.033688
603.000000	0.033689
602.000000	0.033724
601.000000	0.033731
600.000000	0.033812
599.000000	0.033818
598.000000	0.033728
597.000000	0.033854
596.000000	0.033853
595.000000	0.033841
594.000000	0.033813
593.000000	0.033953
592.000000	0.033890
591.000000	0.033845
590.000000	0.033971
589.000000	0.034008
588.000000	0.033953
587.000000	0.033983
586.000000	0.034126
585.000000	0.034158
584.000000	0.034186
583.000000	0.034297
582.000000	0.034294
581.000000	0.034316
580.000000	0.034379
579.000000	0.034417
578.000000	0.034517
577.000000	0.034725
576.000000	0.034608
575.000000	0.034703
574.000000	0.034698
573.000000	0.034647
572.000000	0.034812
571.000000	0.034918
570.000000	0.034912
569.000000	0.034988
568.000000	0.035064
567.000000	0.035116
566.000000	0.035092
565.000000	0.035157
564.000000	0.035341
563.000000	0.035352
562.000000	0.035352
561.000000	0.035376
560.000000	0.035353
559.000000	0.035376
558.000000	0.035502
557.000000	0.035560
556.000000	0.035594
555.000000	0.035518
554.000000	0.035629
553.000000	0.035699
552.000000	0.035679
551.000000	0.035679
550.000000	0.035801
549.000000	0.035716
548.000000	0.035590
547.000000	0.035711
546.000000	0.035766
545.000000	0.035689
544.000000	0.035678
543.000000	0.035688
542.000000	0.035672
541.000000	0.035633
540.000000	0.035713
539.000000	0.035768
538.000000	0.035694
537.000000	0.035648
536.000000	0.035675
535.000000	0.035700
534.000000	0.035635
533.000000	0.035602
532.000000	0.035649
531.000000	0.035587
530.000000	0.035449
529.000000	0.035572
528.000000	0.035541
527.000000	0.035514
526.000000	0.035560
525.000000	0.035535
524.000000	0.035477
523.000000	0.035445
522.000000	0.035469
521.000000	0.035478
520.000000	0.035388
519.000000	0.035312
518.000000	0.035384
517.000000	0.035417
516.000000	0.035416
515.000000	0.035456
514.000000	0.035464
513.000000	0.035421
512.000000	0.035416
511.000000	0.035545
510.000000	0.035555
509.000000	0.035522
508.000000	0.035534
507.000000	0.035615
506.000000	0.035591
505.000000	0.035629
504.000000	0.035703
503.000000	0.035761
502.000000	0.035732
501.000000	0.035784
500.000000	0.035883
499.000000	0.035970
498.000000	0.035976
497.000000	0.036038
496.000000	0.036162
495.000000	0.036188
494.000000	0.036215
493.000000	0.036348
492.000000	0.036421
491.000000	0.036425
490.000000	0.036490
489.000000	0.036592
488.000000	0.036633
487.000000	0.036646
486.000000	0.036808
485.000000	0.036942
484.000000	0.036963
483.000000	0.036992
482.000000	0.037119
481.000000	0.037229
480.000000	0.037200
479.000000	0.037243
478.000000	0.037372
477.000000	0.037434
476.000000	0.037417
475.000000	0.037507
474.000000	0.037663
473.000000	0.037764
472.000000	0.037819
471.000000	0.037849
470.000000	0.037989
469.000000	0.038067
468.000000	0.038168
467.000000	0.038328
466.000000	0.038455
465.000000	0.038509
464.000000	0.038596
463.000000	0.038769
462.000000	0.038826
461.000000	0.038910
460.000000	0.039112
459.000000	0.039133
458.000000	0.039238
457.000000	0.039396
456.000000	0.039558
455.000000	0.039652
454.000000	0.039720
453.000000	0.039776
452.000000	0.039875
451.000000	0.039982
450.000000	0.040049
449.000000	0.040216
448.000000	0.040309
447.000000	0.040233
446.000000	0.040446
445.000000	0.040714
444.000000	0.040718
443.000000	0.040760
442.000000	0.040861
441.000000	0.040883
440.000000	0.040922
439.000000	0.041134
438.000000	0.041280
437.000000	0.041285
436.000000	0.041267
435.000000	0.041344
434.000000	0.041507
433.000000	0.041482
432.000000	0.041452
431.000000	0.041571
430.000000	0.041669
429.000000	0.041652
428.000000	0.041685
427.000000	0.041860
426.000000	0.041841
425.000000	0.041884
424.000000	0.041981
423.000000	0.042036
422.000000	0.041910
421.000000	0.041959
420.000000	0.042143
419.000000	0.042128
418.000000	0.042034
417.000000	0.042047
416.000000	0.042240
415.000000	0.042246
414.000000	0.042334
413.000000	0.042461
412.000000	0.042616
411.000000	0.042547
410.000000	0.042677
409.000000	0.042915
408.000000	0.042877
407.000000	0.043005
406.000000	0.043180
405.000000	0.043240
404.000000	0.043261
403.000000	0.043356
402.000000	0.043617
401.000000	0.043832
400.000000	0.043832
399.000000	0.043933
398.000000	0.044181
397.000000	0.044369
396.000000	0.044329
395.000000	0.044545
394.000000	0.044763
393.000000	0.044758
392.000000	0.044926
391.000000	0.045249
390.000000	0.045436
389.000000	0.045554
388.000000	0.045791
387.000000	0.045850
386.000000	0.046038
385.000000	0.046236
384.000000	0.046479
383.000000	0.046735
382.000000	0.046672
381.000000	0.046804
380.000000	0.047232
379.000000	0.047441
378.000000	0.047662
377.000000	0.047739
376.000000	0.047960
375.000000	0.048272
374.000000	0.048579
373.000000	0.048925
372.000000	0.049032
371.000000	0.049158
370.000000	0.049543
369.000000	0.049922
368.000000	0.050176
367.000000	0.050439
366.000000	0.050806
365.000000	0.051064
364.000000	0.051156
363.000000	0.051710
362.000000	0.052034
361.000000	0.052315
360.000000	0.052621
359.000000	0.052972
358.000000	0.053216
357.000000	0.053547
356.000000	0.053938
355.000000	0.054362
354.000000	0.054751
353.000000	0.054866
352.000000	0.055494
351.000000	0.055929
350.000000	0.056264
349.000000	0.056532
348.000000	0.057028
347.000000	0.057261
346.000000	0.057689
345.000000	0.058257
344.000000	0.058723
343.000000	0.059070
342.000000	0.059401
341.000000	0.059883
340.000000	0.060300
339.000000	0.060756
338.000000	0.061156
337.000000	0.061760
336.000000	0.062247
335.000000	0.062569
334.000000	0.063145
333.000000	0.063817
332.000000	0.064209
331.000000	0.064695
330.000000	0.065290
329.000000	0.065769
328.000000	0.066305
327.000000	0.066804
326.000000	0.067389
325.000000	0.067853
324.000000	0.068462
323.000000	0.069067
322.000000	0.069779
321.000000	0.070397
320.000000	0.071026
319.000000	0.071837
318.000000	0.072418
317.000000	0.072946
316.000000	0.073666
315.000000	0.074449
314.000000	0.075180
313.000000	0.076026
312.000000	0.076858
311.000000	0.077702
310.000000	0.078589
309.000000	0.079470
308.000000	0.080328
307.000000	0.081301
306.000000	0.082275
305.000000	0.083346
304.000000	0.084304
303.000000	0.085520
302.000000	0.086802
301.000000	0.087906
300.000000	0.089023
299.000000	0.090315
298.000000	0.091514
297.000000	0.092778
296.000000	0.094273
295.000000	0.095758
294.000000	0.097155
293.000000	0.098650
292.000000	0.100242
291.000000	0.101843
290.000000	0.103385
289.000000	0.105008
288.000000	0.106751
287.000000	0.108454
286.000000	0.110054
285.000000	0.111737
284.000000	0.113542
283.000000	0.115209
282.000000	0.116887
281.000000	0.118637
280.000000	0.120336
279.000000	0.121948
278.000000	0.123624
277.000000	0.125403
276.000000	0.127095
275.000000	0.128723
274.000000	0.130546
273.000000	0.132402
272.000000	0.133946
271.000000	0.135573
270.000000	0.137318
269.000000	0.138874
268.000000	0.140428
267.000000	0.142173
266.000000	0.143826
265.000000	0.145295
264.000000	0.146744
263.000000	0.148214
262.000000	0.149643
261.000000	0.151048
260.000000	0.152443
259.000000	0.153897
258.000000	0.155290
257.000000	0.156536
256.000000	0.157991
255.000000	0.159334
254.000000	0.160510
253.000000	0.161793
252.000000	0.163272
251.000000	0.164589
250.000000	0.165903
249.000000	0.167371
248.000000	0.168998
247.000000	0.170606
246.000000	0.172212
245.000000	0.174048
244.000000	0.176098
243.000000	0.178200
242.000000	0.180283
241.000000	0.182685
240.000000	0.185100
239.000000	0.187538
238.000000	0.190314
237.000000	0.193294
236.000000	0.196192
235.000000	0.199349
234.000000	0.202588
233.000000	0.205944
232.000000	0.209361
231.000000	0.213074
230.000000	0.216868
229.000000	0.220647
228.000000	0.224466
227.000000	0.228650
226.000000	0.233102
225.000000	0.237773
224.000000	0.243062
223.000000	0.249148
222.000000	0.256075
221.000000	0.263931
220.000000	0.273488
219.000000	0.284951
218.000000	0.298775
217.000000	0.315735
216.000000	0.336767
215.000000	0.362564
214.000000	0.394252
213.000000	0.433376
212.000000	0.481053
211.000000	0.538590
210.000000	0.607582
209.000000	0.689007
208.000000	0.786011
207.000000	0.900954
206.000000	1.037506
205.000000	1.200768
204.000000	1.396896
203.000000	1.636719
202.000000	1.933470
201.000000	2.308968
200.000000	2.790997
