PE UV       SUBTECH     SPECTRUM    ASCII       PEDS        4.00        
   -1
TV5-03A_1CM.Sample.Raw.asc
11/08/25
11:35:19.00
11/08/25
11:35:19.00
Hermanni Kaartokallio

200.000000
1
Lambda 650
650N8121101
PerkinElmer UV WinLab 6.0.2.0723 / 1.61.00 Lambda 650

0
0
2
0
0
UV/VIS
1
1
1
uv/vis/nir detector
0
0
0
0
Fix
 
0
0.24
0
0
0
 
 
 
0
 
0
319.2
0
Front
100
 
 
 
0
0
0
 
0
 
 
 
0
 
 
0
0
0
0
0
 
 
 
 
0
0
#HDR
-1
-1
#GR
nm
A
1.0
0.0
800.000000
-1.000000
601
8
2.258204
0.031431
#DATA
800.000000	0.039913
799.000000	0.040041
798.000000	0.040272
797.000000	0.040232
796.000000	0.040157
795.000000	0.040284
794.000000	0.040540
793.000000	0.040437
792.000000	0.040397
791.000000	0.040647
790.000000	0.040642
789.000000	0.040497
788.000000	0.040672
787.000000	0.040814
786.000000	0.040702
785.000000	0.040631
784.000000	0.041043
783.000000	0.040998
782.000000	0.040896
781.000000	0.040868
780.000000	0.041167
779.000000	0.041250
778.000000	0.041271
777.000000	0.041556
776.000000	0.041663
775.000000	0.041766
774.000000	0.041811
773.000000	0.042067
772.000000	0.042162
771.000000	0.042210
770.000000	0.042498
769.000000	0.042619
768.000000	0.042606
767.000000	0.042565
766.000000	0.042582
765.000000	0.042718
764.000000	0.042612
763.000000	0.042586
762.000000	0.042644
761.000000	0.042601
760.000000	0.042293
759.000000	0.042329
758.000000	0.042257
757.000000	0.042185
756.000000	0.042163
755.000000	0.042215
754.000000	0.042264
753.000000	0.042095
752.000000	0.042099
751.000000	0.042046
750.000000	0.041952
749.000000	0.041871
748.000000	0.041967
747.000000	0.041988
746.000000	0.041903
745.000000	0.041891
744.000000	0.041928
743.000000	0.041880
742.000000	0.041692
741.000000	0.041674
740.000000	0.041610
739.000000	0.041510
738.000000	0.041333
737.000000	0.041185
736.000000	0.040885
735.000000	0.040456
734.000000	0.040102
733.000000	0.039728
732.000000	0.039170
731.000000	0.038557
730.000000	0.038046
729.000000	0.037609
728.000000	0.037097
727.000000	0.036688
726.000000	0.036419
725.000000	0.036080
724.000000	0.035733
723.000000	0.035412
722.000000	0.035270
721.000000	0.034943
720.000000	0.034655
719.000000	0.034483
718.000000	0.034338
717.000000	0.034163
716.000000	0.033975
715.000000	0.033976
714.000000	0.033900
713.000000	0.033599
712.000000	0.033440
711.000000	0.033367
710.000000	0.033216
709.000000	0.033057
708.000000	0.033110
707.000000	0.033090
706.000000	0.032891
705.000000	0.032801
704.000000	0.032736
703.000000	0.032596
702.000000	0.032388
701.000000	0.032261
700.000000	0.032200
699.000000	0.032067
698.000000	0.031938
697.000000	0.031876
696.000000	0.031777
695.000000	0.031702
694.000000	0.031701
693.000000	0.031687
692.000000	0.031619
691.000000	0.031532
690.000000	0.031521
689.000000	0.031560
688.000000	0.031523
687.000000	0.031545
686.000000	0.031549
685.000000	0.031433
684.000000	0.031431
683.000000	0.031584
682.000000	0.031550
681.000000	0.031502
680.000000	0.031599
679.000000	0.031691
678.000000	0.031696
677.000000	0.031710
676.000000	0.031781
675.000000	0.031811
674.000000	0.031703
673.000000	0.031751
672.000000	0.031880
671.000000	0.031873
670.000000	0.031829
669.000000	0.031894
668.000000	0.031941
667.000000	0.031837
666.000000	0.031766
665.000000	0.031771
664.000000	0.031770
663.000000	0.031731
662.000000	0.031723
661.000000	0.031796
660.000000	0.031750
659.000000	0.031672
658.000000	0.031705
657.000000	0.031685
656.000000	0.031630
655.000000	0.031656
654.000000	0.031737
653.000000	0.031673
652.000000	0.031591
651.000000	0.031697
650.000000	0.031826
649.000000	0.031774
648.000000	0.031843
647.000000	0.031893
646.000000	0.031957
645.000000	0.032066
644.000000	0.032164
643.000000	0.032245
642.000000	0.032254
641.000000	0.032287
640.000000	0.032447
639.000000	0.032539
638.000000	0.032555
637.000000	0.032574
636.000000	0.032641
635.000000	0.032727
634.000000	0.032685
633.000000	0.032819
632.000000	0.032824
631.000000	0.032759
630.000000	0.032666
629.000000	0.032806
628.000000	0.032776
627.000000	0.032661
626.000000	0.032715
625.000000	0.032720
624.000000	0.032629
623.000000	0.032564
622.000000	0.032635
621.000000	0.032636
620.000000	0.032636
619.000000	0.032491
618.000000	0.032548
617.000000	0.032520
616.000000	0.032415
615.000000	0.032569
614.000000	0.032595
613.000000	0.032528
612.000000	0.032484
611.000000	0.032608
610.000000	0.032684
609.000000	0.032610
608.000000	0.032683
607.000000	0.032822
606.000000	0.032844
605.000000	0.032884
604.000000	0.032788
603.000000	0.032920
602.000000	0.032914
601.000000	0.032918
600.000000	0.033008
599.000000	0.033087
598.000000	0.032907
597.000000	0.033058
596.000000	0.033097
595.000000	0.033153
594.000000	0.032998
593.000000	0.033298
592.000000	0.033203
591.000000	0.033210
590.000000	0.033260
589.000000	0.033363
588.000000	0.033352
587.000000	0.033307
586.000000	0.033484
585.000000	0.033612
584.000000	0.033740
583.000000	0.033600
582.000000	0.033738
581.000000	0.033810
580.000000	0.033811
579.000000	0.033807
578.000000	0.034002
577.000000	0.034078
576.000000	0.033996
575.000000	0.034197
574.000000	0.034287
573.000000	0.034209
572.000000	0.034277
571.000000	0.034384
570.000000	0.034424
569.000000	0.034479
568.000000	0.034544
567.000000	0.034602
566.000000	0.034678
565.000000	0.034645
564.000000	0.034796
563.000000	0.034869
562.000000	0.034888
561.000000	0.034883
560.000000	0.035041
559.000000	0.035002
558.000000	0.035077
557.000000	0.035155
556.000000	0.035216
555.000000	0.035080
554.000000	0.035188
553.000000	0.035324
552.000000	0.035399
551.000000	0.035278
550.000000	0.035412
549.000000	0.035401
548.000000	0.035279
547.000000	0.035314
546.000000	0.035472
545.000000	0.035428
544.000000	0.035322
543.000000	0.035333
542.000000	0.035431
541.000000	0.035333
540.000000	0.035323
539.000000	0.035353
538.000000	0.035367
537.000000	0.035363
536.000000	0.035323
535.000000	0.035339
534.000000	0.035288
533.000000	0.035255
532.000000	0.035314
531.000000	0.035336
530.000000	0.035215
529.000000	0.035228
528.000000	0.035221
527.000000	0.035270
526.000000	0.035230
525.000000	0.035232
524.000000	0.035230
523.000000	0.035177
522.000000	0.035215
521.000000	0.035262
520.000000	0.035233
519.000000	0.035171
518.000000	0.035219
517.000000	0.035306
516.000000	0.035269
515.000000	0.035222
514.000000	0.035278
513.000000	0.035357
512.000000	0.035367
511.000000	0.035388
510.000000	0.035451
509.000000	0.035449
508.000000	0.035399
507.000000	0.035486
506.000000	0.035563
505.000000	0.035595
504.000000	0.035644
503.000000	0.035773
502.000000	0.035807
501.000000	0.035788
500.000000	0.035886
499.000000	0.036053
498.000000	0.036082
497.000000	0.036087
496.000000	0.036182
495.000000	0.036362
494.000000	0.036426
493.000000	0.036482
492.000000	0.036597
491.000000	0.036688
490.000000	0.036731
489.000000	0.036819
488.000000	0.036955
487.000000	0.037070
486.000000	0.037150
485.000000	0.037293
484.000000	0.037421
483.000000	0.037448
482.000000	0.037605
481.000000	0.037737
480.000000	0.037715
479.000000	0.037725
478.000000	0.037842
477.000000	0.038006
476.000000	0.038104
475.000000	0.038134
474.000000	0.038229
473.000000	0.038402
472.000000	0.038450
471.000000	0.038491
470.000000	0.038668
469.000000	0.038792
468.000000	0.038834
467.000000	0.038984
466.000000	0.039197
465.000000	0.039269
464.000000	0.039341
463.000000	0.039567
462.000000	0.039671
461.000000	0.039737
460.000000	0.039931
459.000000	0.040051
458.000000	0.040105
457.000000	0.040256
456.000000	0.040448
455.000000	0.040625
454.000000	0.040676
453.000000	0.040766
452.000000	0.040908
451.000000	0.041016
450.000000	0.041084
449.000000	0.041273
448.000000	0.041383
447.000000	0.041371
446.000000	0.041562
445.000000	0.041813
444.000000	0.041953
443.000000	0.041958
442.000000	0.042068
441.000000	0.042162
440.000000	0.042299
439.000000	0.042368
438.000000	0.042505
437.000000	0.042650
436.000000	0.042652
435.000000	0.042687
434.000000	0.042972
433.000000	0.043034
432.000000	0.042958
431.000000	0.043089
430.000000	0.043253
429.000000	0.043264
428.000000	0.043310
427.000000	0.043475
426.000000	0.043624
425.000000	0.043638
424.000000	0.043744
423.000000	0.043882
422.000000	0.043983
421.000000	0.043948
420.000000	0.044039
419.000000	0.044228
418.000000	0.044234
417.000000	0.044263
416.000000	0.044591
415.000000	0.044642
414.000000	0.044720
413.000000	0.044788
412.000000	0.044992
411.000000	0.045107
410.000000	0.045222
409.000000	0.045421
408.000000	0.045639
407.000000	0.045718
406.000000	0.045866
405.000000	0.046069
404.000000	0.046334
403.000000	0.046315
402.000000	0.046578
401.000000	0.046810
400.000000	0.047030
399.000000	0.047176
398.000000	0.047368
397.000000	0.047700
396.000000	0.047736
395.000000	0.048030
394.000000	0.048316
393.000000	0.048529
392.000000	0.048656
391.000000	0.048904
390.000000	0.049184
389.000000	0.049464
388.000000	0.049717
387.000000	0.049859
386.000000	0.050295
385.000000	0.050463
384.000000	0.050672
383.000000	0.051104
382.000000	0.051232
381.000000	0.051380
380.000000	0.051921
379.000000	0.052140
378.000000	0.052440
377.000000	0.052557
376.000000	0.053186
375.000000	0.053454
374.000000	0.053659
373.000000	0.054193
372.000000	0.054597
371.000000	0.054751
370.000000	0.055251
369.000000	0.055701
368.000000	0.056083
367.000000	0.056321
366.000000	0.056777
365.000000	0.057243
364.000000	0.057597
363.000000	0.057992
362.000000	0.058484
361.000000	0.059018
360.000000	0.059371
359.000000	0.059745
358.000000	0.060236
357.000000	0.060722
356.000000	0.061140
355.000000	0.061737
354.000000	0.062246
353.000000	0.062621
352.000000	0.063192
351.000000	0.063734
350.000000	0.064255
349.000000	0.064704
348.000000	0.065240
347.000000	0.065789
346.000000	0.066379
345.000000	0.066773
344.000000	0.067456
343.000000	0.067997
342.000000	0.068565
341.000000	0.069208
340.000000	0.069904
339.000000	0.070436
338.000000	0.070897
337.000000	0.071655
336.000000	0.072329
335.000000	0.072885
334.000000	0.073605
333.000000	0.074423
332.000000	0.075135
331.000000	0.075762
330.000000	0.076431
329.000000	0.077125
328.000000	0.077869
327.000000	0.078568
326.000000	0.079384
325.000000	0.080133
324.000000	0.080986
323.000000	0.081662
322.000000	0.082520
321.000000	0.083425
320.000000	0.084257
319.000000	0.085222
318.000000	0.086072
317.000000	0.086854
316.000000	0.087892
315.000000	0.088920
314.000000	0.089856
313.000000	0.090829
312.000000	0.091945
311.000000	0.093095
310.000000	0.094264
309.000000	0.095478
308.000000	0.096609
307.000000	0.097770
306.000000	0.098953
305.000000	0.100349
304.000000	0.101680
303.000000	0.103038
302.000000	0.104610
301.000000	0.106173
300.000000	0.107580
299.000000	0.109107
298.000000	0.110723
297.000000	0.112353
296.000000	0.114149
295.000000	0.115914
294.000000	0.117707
293.000000	0.119615
292.000000	0.121527
291.000000	0.123563
290.000000	0.125597
289.000000	0.127549
288.000000	0.129544
287.000000	0.131658
286.000000	0.133710
285.000000	0.135779
284.000000	0.137942
283.000000	0.140010
282.000000	0.142124
281.000000	0.144169
280.000000	0.146208
279.000000	0.148298
278.000000	0.150170
277.000000	0.152194
276.000000	0.154345
275.000000	0.156373
274.000000	0.158494
273.000000	0.160619
272.000000	0.162471
271.000000	0.164351
270.000000	0.166345
269.000000	0.168286
268.000000	0.170277
267.000000	0.172219
266.000000	0.174108
265.000000	0.175857
264.000000	0.177574
263.000000	0.179273
262.000000	0.181133
261.000000	0.182944
260.000000	0.184573
259.000000	0.186273
258.000000	0.187984
257.000000	0.189597
256.000000	0.191232
255.000000	0.192857
254.000000	0.194542
253.000000	0.196179
252.000000	0.197913
251.000000	0.199701
250.000000	0.201475
249.000000	0.203320
248.000000	0.205297
247.000000	0.207437
246.000000	0.209543
245.000000	0.211945
244.000000	0.214636
243.000000	0.217250
242.000000	0.219853
241.000000	0.222745
240.000000	0.225927
239.000000	0.229137
238.000000	0.232500
237.000000	0.235936
236.000000	0.239564
235.000000	0.243472
234.000000	0.247369
233.000000	0.251461
232.000000	0.255780
231.000000	0.260163
230.000000	0.264487
229.000000	0.268937
228.000000	0.273467
227.000000	0.278118
226.000000	0.282973
225.000000	0.288105
224.000000	0.293662
223.000000	0.299839
222.000000	0.306635
221.000000	0.314191
220.000000	0.323066
219.000000	0.333234
218.000000	0.345468
217.000000	0.360061
216.000000	0.377613
215.000000	0.398651
214.000000	0.424180
213.000000	0.455250
212.000000	0.492469
211.000000	0.536990
210.000000	0.589938
209.000000	0.651635
208.000000	0.724717
207.000000	0.811505
206.000000	0.914374
205.000000	1.036538
204.000000	1.184731
203.000000	1.367320
202.000000	1.594142
201.000000	1.884807
200.000000	2.258204
