PE UV       SUBTECH     SPECTRUM    ASCII       PEDS        4.00        
   -1
TV5-01B_1CM.Sample.Raw.asc
11/08/25
11:21:13.00
11/08/25
11:21:13.00
Hermanni Kaartokallio

200.000000
1
Lambda 650
650N8121101
PerkinElmer UV WinLab 6.0.2.0723 / 1.61.00 Lambda 650

0
0
2
0
0
UV/VIS
1
1
1
uv/vis/nir detector
0
0
0
0
Fix
 
0
0.24
0
0
0
 
 
 
0
 
0
319.2
0
Front
100
 
 
 
0
0
0
 
0
 
 
 
0
 
 
0
0
0
0
0
 
 
 
 
0
0
#HDR
-1
-1
#GR
nm
A
1.0
0.0
800.000000
-1.000000
601
8
2.769177
0.031852
#DATA
800.000000	0.040234
799.000000	0.040307
798.000000	0.040543
797.000000	0.040445
796.000000	0.040659
795.000000	0.040637
794.000000	0.040794
793.000000	0.040748
792.000000	0.040782
791.000000	0.040921
790.000000	0.041008
789.000000	0.040941
788.000000	0.041156
787.000000	0.041227
786.000000	0.041133
785.000000	0.041236
784.000000	0.041530
783.000000	0.041661
782.000000	0.041615
781.000000	0.041726
780.000000	0.041857
779.000000	0.042003
778.000000	0.042109
777.000000	0.042233
776.000000	0.042326
775.000000	0.042476
774.000000	0.042387
773.000000	0.042567
772.000000	0.042728
771.000000	0.042837
770.000000	0.043039
769.000000	0.042989
768.000000	0.043003
767.000000	0.043013
766.000000	0.043086
765.000000	0.043143
764.000000	0.043009
763.000000	0.043114
762.000000	0.043043
761.000000	0.042997
760.000000	0.042876
759.000000	0.042875
758.000000	0.042794
757.000000	0.042786
756.000000	0.042794
755.000000	0.042754
754.000000	0.042828
753.000000	0.042810
752.000000	0.042841
751.000000	0.042817
750.000000	0.042746
749.000000	0.042751
748.000000	0.042807
747.000000	0.042756
746.000000	0.042752
745.000000	0.042779
744.000000	0.042717
743.000000	0.042709
742.000000	0.042665
741.000000	0.042661
740.000000	0.042533
739.000000	0.042401
738.000000	0.042250
737.000000	0.042046
736.000000	0.041728
735.000000	0.041297
734.000000	0.040895
733.000000	0.040478
732.000000	0.039908
731.000000	0.039320
730.000000	0.038776
729.000000	0.038242
728.000000	0.037668
727.000000	0.037302
726.000000	0.037000
725.000000	0.036583
724.000000	0.036290
723.000000	0.036050
722.000000	0.035742
721.000000	0.035413
720.000000	0.035189
719.000000	0.035014
718.000000	0.034774
717.000000	0.034568
716.000000	0.034489
715.000000	0.034313
714.000000	0.034057
713.000000	0.033912
712.000000	0.033850
711.000000	0.033739
710.000000	0.033593
709.000000	0.033490
708.000000	0.033508
707.000000	0.033498
706.000000	0.033345
705.000000	0.033211
704.000000	0.033101
703.000000	0.032919
702.000000	0.032708
701.000000	0.032558
700.000000	0.032470
699.000000	0.032376
698.000000	0.032306
697.000000	0.032216
696.000000	0.032068
695.000000	0.032049
694.000000	0.032096
693.000000	0.032024
692.000000	0.031917
691.000000	0.031852
690.000000	0.031879
689.000000	0.031927
688.000000	0.031913
687.000000	0.031883
686.000000	0.031901
685.000000	0.031904
684.000000	0.032026
683.000000	0.032079
682.000000	0.031966
681.000000	0.031973
680.000000	0.032083
679.000000	0.032165
678.000000	0.032196
677.000000	0.032270
676.000000	0.032260
675.000000	0.032199
674.000000	0.032191
673.000000	0.032290
672.000000	0.032382
671.000000	0.032369
670.000000	0.032364
669.000000	0.032435
668.000000	0.032434
667.000000	0.032385
666.000000	0.032378
665.000000	0.032297
664.000000	0.032288
663.000000	0.032293
662.000000	0.032318
661.000000	0.032275
660.000000	0.032227
659.000000	0.032199
658.000000	0.032163
657.000000	0.032129
656.000000	0.032061
655.000000	0.032095
654.000000	0.032102
653.000000	0.032016
652.000000	0.031985
651.000000	0.032084
650.000000	0.032165
649.000000	0.032172
648.000000	0.032295
647.000000	0.032271
646.000000	0.032267
645.000000	0.032312
644.000000	0.032557
643.000000	0.032570
642.000000	0.032519
641.000000	0.032643
640.000000	0.032804
639.000000	0.032834
638.000000	0.032923
637.000000	0.032925
636.000000	0.032989
635.000000	0.032963
634.000000	0.032894
633.000000	0.033081
632.000000	0.033052
631.000000	0.032992
630.000000	0.032990
629.000000	0.033010
628.000000	0.032962
627.000000	0.032875
626.000000	0.032915
625.000000	0.032860
624.000000	0.032761
623.000000	0.032717
622.000000	0.032777
621.000000	0.032684
620.000000	0.032737
619.000000	0.032633
618.000000	0.032699
617.000000	0.032651
616.000000	0.032615
615.000000	0.032780
614.000000	0.032673
613.000000	0.032602
612.000000	0.032674
611.000000	0.032767
610.000000	0.032707
609.000000	0.032762
608.000000	0.032804
607.000000	0.032924
606.000000	0.032859
605.000000	0.032991
604.000000	0.032902
603.000000	0.032941
602.000000	0.032988
601.000000	0.033034
600.000000	0.033171
599.000000	0.033207
598.000000	0.033017
597.000000	0.033148
596.000000	0.033252
595.000000	0.033144
594.000000	0.033166
593.000000	0.033375
592.000000	0.033307
591.000000	0.033233
590.000000	0.033424
589.000000	0.033497
588.000000	0.033411
587.000000	0.033467
586.000000	0.033610
585.000000	0.033580
584.000000	0.033688
583.000000	0.033725
582.000000	0.033805
581.000000	0.033824
580.000000	0.033826
579.000000	0.033896
578.000000	0.033966
577.000000	0.033992
576.000000	0.034035
575.000000	0.034183
574.000000	0.034152
573.000000	0.034126
572.000000	0.034319
571.000000	0.034395
570.000000	0.034450
569.000000	0.034483
568.000000	0.034508
567.000000	0.034562
566.000000	0.034611
565.000000	0.034671
564.000000	0.034814
563.000000	0.034838
562.000000	0.034841
561.000000	0.034882
560.000000	0.034859
559.000000	0.034886
558.000000	0.035050
557.000000	0.035068
556.000000	0.035056
555.000000	0.035040
554.000000	0.035088
553.000000	0.035201
552.000000	0.035213
551.000000	0.035187
550.000000	0.035351
549.000000	0.035259
548.000000	0.035105
547.000000	0.035231
546.000000	0.035290
545.000000	0.035233
544.000000	0.035168
543.000000	0.035218
542.000000	0.035159
541.000000	0.035130
540.000000	0.035167
539.000000	0.035196
538.000000	0.035065
537.000000	0.034996
536.000000	0.035039
535.000000	0.035023
534.000000	0.034937
533.000000	0.034921
532.000000	0.034999
531.000000	0.034893
530.000000	0.034764
529.000000	0.034817
528.000000	0.034836
527.000000	0.034836
526.000000	0.034855
525.000000	0.034932
524.000000	0.034839
523.000000	0.034766
522.000000	0.034862
521.000000	0.034906
520.000000	0.034854
519.000000	0.034783
518.000000	0.034872
517.000000	0.034882
516.000000	0.034845
515.000000	0.034890
514.000000	0.034916
513.000000	0.034928
512.000000	0.035002
511.000000	0.035124
510.000000	0.035120
509.000000	0.035079
508.000000	0.035035
507.000000	0.035111
506.000000	0.035143
505.000000	0.035187
504.000000	0.035311
503.000000	0.035436
502.000000	0.035425
501.000000	0.035392
500.000000	0.035493
499.000000	0.035616
498.000000	0.035621
497.000000	0.035649
496.000000	0.035796
495.000000	0.035870
494.000000	0.035938
493.000000	0.036039
492.000000	0.036074
491.000000	0.036086
490.000000	0.036193
489.000000	0.036328
488.000000	0.036379
487.000000	0.036409
486.000000	0.036570
485.000000	0.036766
484.000000	0.036815
483.000000	0.036845
482.000000	0.036988
481.000000	0.037041
480.000000	0.036967
479.000000	0.037054
478.000000	0.037214
477.000000	0.037277
476.000000	0.037324
475.000000	0.037444
474.000000	0.037573
473.000000	0.037675
472.000000	0.037736
471.000000	0.037842
470.000000	0.037998
469.000000	0.038058
468.000000	0.038141
467.000000	0.038269
466.000000	0.038409
465.000000	0.038477
464.000000	0.038588
463.000000	0.038825
462.000000	0.038896
461.000000	0.038969
460.000000	0.039172
459.000000	0.039259
458.000000	0.039299
457.000000	0.039437
456.000000	0.039629
455.000000	0.039733
454.000000	0.039782
453.000000	0.039901
452.000000	0.040031
451.000000	0.040089
450.000000	0.040126
449.000000	0.040343
448.000000	0.040426
447.000000	0.040369
446.000000	0.040661
445.000000	0.040848
444.000000	0.040845
443.000000	0.040924
442.000000	0.041055
441.000000	0.041106
440.000000	0.041148
439.000000	0.041316
438.000000	0.041434
437.000000	0.041505
436.000000	0.041483
435.000000	0.041518
434.000000	0.041738
433.000000	0.041763
432.000000	0.041806
431.000000	0.041952
430.000000	0.042036
429.000000	0.041958
428.000000	0.042081
427.000000	0.042243
426.000000	0.042242
425.000000	0.042319
424.000000	0.042480
423.000000	0.042563
422.000000	0.042465
421.000000	0.042552
420.000000	0.042748
419.000000	0.042841
418.000000	0.042783
417.000000	0.042836
416.000000	0.043065
415.000000	0.043074
414.000000	0.043199
413.000000	0.043309
412.000000	0.043508
411.000000	0.043489
410.000000	0.043572
409.000000	0.043837
408.000000	0.043926
407.000000	0.044012
406.000000	0.044229
405.000000	0.044399
404.000000	0.044482
403.000000	0.044534
402.000000	0.044895
401.000000	0.045115
400.000000	0.045133
399.000000	0.045321
398.000000	0.045624
397.000000	0.045735
396.000000	0.045928
395.000000	0.046082
394.000000	0.046354
393.000000	0.046357
392.000000	0.046518
391.000000	0.046985
390.000000	0.047210
389.000000	0.047270
388.000000	0.047536
387.000000	0.047772
386.000000	0.047987
385.000000	0.048211
384.000000	0.048510
383.000000	0.048833
382.000000	0.048812
381.000000	0.049023
380.000000	0.049522
379.000000	0.049721
378.000000	0.049976
377.000000	0.050081
376.000000	0.050415
375.000000	0.050732
374.000000	0.051095
373.000000	0.051734
372.000000	0.051859
371.000000	0.052002
370.000000	0.052445
369.000000	0.052862
368.000000	0.053168
367.000000	0.053506
366.000000	0.053885
365.000000	0.054252
364.000000	0.054466
363.000000	0.055020
362.000000	0.055496
361.000000	0.055835
360.000000	0.056148
359.000000	0.056605
358.000000	0.057046
357.000000	0.057406
356.000000	0.057809
355.000000	0.058383
354.000000	0.058816
353.000000	0.059156
352.000000	0.059637
351.000000	0.060185
350.000000	0.060496
349.000000	0.060988
348.000000	0.061627
347.000000	0.062031
346.000000	0.062452
345.000000	0.062953
344.000000	0.063570
343.000000	0.063947
342.000000	0.064393
341.000000	0.065019
340.000000	0.065585
339.000000	0.066007
338.000000	0.066434
337.000000	0.067288
336.000000	0.067822
335.000000	0.068125
334.000000	0.068879
333.000000	0.069516
332.000000	0.070004
331.000000	0.070615
330.000000	0.071219
329.000000	0.071841
328.000000	0.072388
327.000000	0.073043
326.000000	0.073801
325.000000	0.074286
324.000000	0.074972
323.000000	0.075754
322.000000	0.076454
321.000000	0.077183
320.000000	0.077767
319.000000	0.078662
318.000000	0.079386
317.000000	0.080092
316.000000	0.080927
315.000000	0.081700
314.000000	0.082562
313.000000	0.083588
312.000000	0.084480
311.000000	0.085403
310.000000	0.086450
309.000000	0.087446
308.000000	0.088453
307.000000	0.089505
306.000000	0.090709
305.000000	0.091870
304.000000	0.092867
303.000000	0.094168
302.000000	0.095633
301.000000	0.096880
300.000000	0.097930
299.000000	0.099379
298.000000	0.100747
297.000000	0.101981
296.000000	0.103527
295.000000	0.105105
294.000000	0.106533
293.000000	0.107962
292.000000	0.109582
291.000000	0.111294
290.000000	0.112785
289.000000	0.114329
288.000000	0.116096
287.000000	0.117804
286.000000	0.119345
285.000000	0.121001
284.000000	0.122905
283.000000	0.124608
282.000000	0.126193
281.000000	0.127899
280.000000	0.129622
279.000000	0.131183
278.000000	0.132819
277.000000	0.134658
276.000000	0.136479
275.000000	0.138140
274.000000	0.139951
273.000000	0.141885
272.000000	0.143478
271.000000	0.145089
270.000000	0.146876
269.000000	0.148465
268.000000	0.150080
267.000000	0.151904
266.000000	0.153677
265.000000	0.155218
264.000000	0.156686
263.000000	0.158268
262.000000	0.159824
261.000000	0.161302
260.000000	0.162787
259.000000	0.164317
258.000000	0.165815
257.000000	0.167134
256.000000	0.168670
255.000000	0.170135
254.000000	0.171454
253.000000	0.172912
252.000000	0.174491
251.000000	0.175942
250.000000	0.177422
249.000000	0.179112
248.000000	0.181042
247.000000	0.182917
246.000000	0.184664
245.000000	0.186845
244.000000	0.189167
243.000000	0.191480
242.000000	0.193952
241.000000	0.196730
240.000000	0.199578
239.000000	0.202522
238.000000	0.205873
237.000000	0.209577
236.000000	0.213196
235.000000	0.217080
234.000000	0.221369
233.000000	0.225912
232.000000	0.230760
231.000000	0.236175
230.000000	0.241815
229.000000	0.247889
228.000000	0.254356
227.000000	0.261546
226.000000	0.269412
225.000000	0.277951
224.000000	0.287410
223.000000	0.298109
222.000000	0.309980
221.000000	0.323130
220.000000	0.338016
219.000000	0.354970
218.000000	0.374592
217.000000	0.396992
216.000000	0.423163
215.000000	0.454080
214.000000	0.490227
213.000000	0.533140
212.000000	0.583239
211.000000	0.642262
210.000000	0.710418
209.000000	0.790263
208.000000	0.883331
207.000000	0.992237
206.000000	1.121001
205.000000	1.273778
204.000000	1.457295
203.000000	1.680405
202.000000	1.959799
201.000000	2.313005
200.000000	2.769177
