PE UV       SUBTECH     SPECTRUM    ASCII       PEDS        4.00        
   -1
KI4-02A.Sample.Raw.asc
11/05/20
12:20:27.00
11/05/20
12:20:27.00
Hermanni Kaartokallio

200.000000
1
Lambda 650
650N8121101
PerkinElmer UV WinLab 6.0.2.0723 / 1.61.00 Lambda 650

0
0
2
0
0
UV/VIS
1
1
1
uv/vis/nir detector
0
0
0
0
Fix
 
0
0.24
0
0
0
 
 
 
0
 
0
319.2
0
Front
100
 
 
 
0
0
0
 
0
 
 
 
0
 
 
0
0
0
0
0
 
 
 
 
0
0
#HDR
-1
-1
#GR
nm
A
1.0
0.0
800.000000
-1.000000
601
8
1.659419
0.037820
#DATA
800.000000	0.047035
799.000000	0.046911
798.000000	0.047268
797.000000	0.047333
796.000000	0.047244
795.000000	0.047262
794.000000	0.047190
793.000000	0.047571
792.000000	0.047665
791.000000	0.047764
790.000000	0.047933
789.000000	0.048121
788.000000	0.048280
787.000000	0.048306
786.000000	0.048367
785.000000	0.048605
784.000000	0.048356
783.000000	0.048413
782.000000	0.048446
781.000000	0.048368
780.000000	0.048372
779.000000	0.048338
778.000000	0.048272
777.000000	0.048107
776.000000	0.047976
775.000000	0.048017
774.000000	0.048041
773.000000	0.047924
772.000000	0.047920
771.000000	0.047852
770.000000	0.047832
769.000000	0.047809
768.000000	0.047727
767.000000	0.047741
766.000000	0.047767
765.000000	0.047841
764.000000	0.047847
763.000000	0.047973
762.000000	0.047994
761.000000	0.047977
760.000000	0.048025
759.000000	0.048082
758.000000	0.048066
757.000000	0.048210
756.000000	0.048153
755.000000	0.048195
754.000000	0.048148
753.000000	0.048230
752.000000	0.048123
751.000000	0.048108
750.000000	0.048333
749.000000	0.048293
748.000000	0.048238
747.000000	0.048316
746.000000	0.048323
745.000000	0.048301
744.000000	0.048317
743.000000	0.048321
742.000000	0.048290
741.000000	0.048204
740.000000	0.047991
739.000000	0.047872
738.000000	0.047781
737.000000	0.047549
736.000000	0.047226
735.000000	0.046912
734.000000	0.046542
733.000000	0.046097
732.000000	0.045672
731.000000	0.045301
730.000000	0.044766
729.000000	0.044302
728.000000	0.043938
727.000000	0.043596
726.000000	0.043396
725.000000	0.043136
724.000000	0.042710
723.000000	0.042442
722.000000	0.042261
721.000000	0.041985
720.000000	0.041780
719.000000	0.041484
718.000000	0.041064
717.000000	0.040721
716.000000	0.040358
715.000000	0.040080
714.000000	0.039838
713.000000	0.039530
712.000000	0.039252
711.000000	0.038989
710.000000	0.038749
709.000000	0.038637
708.000000	0.038500
707.000000	0.038345
706.000000	0.038262
705.000000	0.038177
704.000000	0.038169
703.000000	0.038141
702.000000	0.038153
701.000000	0.038283
700.000000	0.038191
699.000000	0.038131
698.000000	0.038242
697.000000	0.038205
696.000000	0.038275
695.000000	0.038277
694.000000	0.038165
693.000000	0.038204
692.000000	0.038226
691.000000	0.038265
690.000000	0.038287
689.000000	0.038250
688.000000	0.038190
687.000000	0.038176
686.000000	0.038117
685.000000	0.038083
684.000000	0.038069
683.000000	0.038005
682.000000	0.037981
681.000000	0.037977
680.000000	0.037938
679.000000	0.037915
678.000000	0.037841
677.000000	0.037820
676.000000	0.037912
675.000000	0.037923
674.000000	0.037911
673.000000	0.037967
672.000000	0.038044
671.000000	0.038033
670.000000	0.038133
669.000000	0.038304
668.000000	0.038363
667.000000	0.038409
666.000000	0.038455
665.000000	0.038491
664.000000	0.038601
663.000000	0.038722
662.000000	0.038749
661.000000	0.038799
660.000000	0.038832
659.000000	0.038923
658.000000	0.039058
657.000000	0.039105
656.000000	0.039096
655.000000	0.039109
654.000000	0.039113
653.000000	0.039158
652.000000	0.039230
651.000000	0.039295
650.000000	0.039187
649.000000	0.039089
648.000000	0.039049
647.000000	0.039038
646.000000	0.038974
645.000000	0.038884
644.000000	0.038805
643.000000	0.038739
642.000000	0.038644
641.000000	0.038526
640.000000	0.038525
639.000000	0.038438
638.000000	0.038289
637.000000	0.038335
636.000000	0.038292
635.000000	0.038154
634.000000	0.038224
633.000000	0.038326
632.000000	0.038321
631.000000	0.038341
630.000000	0.038415
629.000000	0.038504
628.000000	0.038510
627.000000	0.038598
626.000000	0.038682
625.000000	0.038783
624.000000	0.038806
623.000000	0.038881
622.000000	0.039043
621.000000	0.039107
620.000000	0.039088
619.000000	0.039173
618.000000	0.039293
617.000000	0.039313
616.000000	0.039375
615.000000	0.039574
614.000000	0.039554
613.000000	0.039445
612.000000	0.039588
611.000000	0.039648
610.000000	0.039768
609.000000	0.039689
608.000000	0.039702
607.000000	0.039802
606.000000	0.039732
605.000000	0.039825
604.000000	0.039907
603.000000	0.039992
602.000000	0.039744
601.000000	0.039856
600.000000	0.039878
599.000000	0.039803
598.000000	0.039814
597.000000	0.039980
596.000000	0.039899
595.000000	0.039840
594.000000	0.039824
593.000000	0.039973
592.000000	0.039970
591.000000	0.039929
590.000000	0.040014
589.000000	0.040023
588.000000	0.040020
587.000000	0.039956
586.000000	0.040028
585.000000	0.040080
584.000000	0.040094
583.000000	0.039993
582.000000	0.040101
581.000000	0.040055
580.000000	0.040126
579.000000	0.040241
578.000000	0.040397
577.000000	0.040225
576.000000	0.040182
575.000000	0.040196
574.000000	0.040170
573.000000	0.040057
572.000000	0.040128
571.000000	0.040182
570.000000	0.040102
569.000000	0.040037
568.000000	0.040082
567.000000	0.040076
566.000000	0.039958
565.000000	0.039812
564.000000	0.039889
563.000000	0.039716
562.000000	0.039636
561.000000	0.039773
560.000000	0.039729
559.000000	0.039641
558.000000	0.039625
557.000000	0.039619
556.000000	0.039485
555.000000	0.039422
554.000000	0.039471
553.000000	0.039416
552.000000	0.039280
551.000000	0.039236
550.000000	0.039310
549.000000	0.039203
548.000000	0.039139
547.000000	0.039215
546.000000	0.039191
545.000000	0.039120
544.000000	0.039102
543.000000	0.039225
542.000000	0.039270
541.000000	0.039224
540.000000	0.039271
539.000000	0.039351
538.000000	0.039320
537.000000	0.039438
536.000000	0.039582
535.000000	0.039532
534.000000	0.039479
533.000000	0.039624
532.000000	0.039765
531.000000	0.039756
530.000000	0.039777
529.000000	0.039874
528.000000	0.039886
527.000000	0.039892
526.000000	0.039957
525.000000	0.040220
524.000000	0.040346
523.000000	0.040295
522.000000	0.040271
521.000000	0.040415
520.000000	0.040454
519.000000	0.040553
518.000000	0.040692
517.000000	0.040741
516.000000	0.040757
515.000000	0.040827
514.000000	0.040920
513.000000	0.040987
512.000000	0.041125
511.000000	0.041219
510.000000	0.041287
509.000000	0.041356
508.000000	0.041422
507.000000	0.041474
506.000000	0.041614
505.000000	0.041660
504.000000	0.041734
503.000000	0.041811
502.000000	0.041842
501.000000	0.041919
500.000000	0.042104
499.000000	0.042188
498.000000	0.042233
497.000000	0.042339
496.000000	0.042451
495.000000	0.042545
494.000000	0.042625
493.000000	0.042738
492.000000	0.042800
491.000000	0.042884
490.000000	0.042995
489.000000	0.043127
488.000000	0.043203
487.000000	0.043200
486.000000	0.043325
485.000000	0.043391
484.000000	0.043360
483.000000	0.043423
482.000000	0.043576
481.000000	0.043619
480.000000	0.043607
479.000000	0.043674
478.000000	0.043791
477.000000	0.043848
476.000000	0.043948
475.000000	0.044030
474.000000	0.044081
473.000000	0.044136
472.000000	0.044174
471.000000	0.044284
470.000000	0.044377
469.000000	0.044394
468.000000	0.044469
467.000000	0.044538
466.000000	0.044613
465.000000	0.044591
464.000000	0.044704
463.000000	0.044794
462.000000	0.044749
461.000000	0.044825
460.000000	0.044951
459.000000	0.045046
458.000000	0.045097
457.000000	0.045092
456.000000	0.045141
455.000000	0.045208
454.000000	0.045264
453.000000	0.045362
452.000000	0.045435
451.000000	0.045417
450.000000	0.045488
449.000000	0.045612
448.000000	0.045705
447.000000	0.045842
446.000000	0.045964
445.000000	0.046027
444.000000	0.046100
443.000000	0.046242
442.000000	0.046356
441.000000	0.046587
440.000000	0.046685
439.000000	0.046725
438.000000	0.046895
437.000000	0.047003
436.000000	0.046994
435.000000	0.047131
434.000000	0.047359
433.000000	0.047456
432.000000	0.047562
431.000000	0.047736
430.000000	0.047907
429.000000	0.048077
428.000000	0.048290
427.000000	0.048442
426.000000	0.048605
425.000000	0.048729
424.000000	0.048960
423.000000	0.049137
422.000000	0.049360
421.000000	0.049444
420.000000	0.049643
419.000000	0.049820
418.000000	0.050007
417.000000	0.050187
416.000000	0.050446
415.000000	0.050728
414.000000	0.050891
413.000000	0.051092
412.000000	0.051270
411.000000	0.051525
410.000000	0.051852
409.000000	0.052015
408.000000	0.052167
407.000000	0.052485
406.000000	0.052689
405.000000	0.052849
404.000000	0.053187
403.000000	0.053518
402.000000	0.053714
401.000000	0.053962
400.000000	0.054227
399.000000	0.054626
398.000000	0.054990
397.000000	0.055277
396.000000	0.055499
395.000000	0.055754
394.000000	0.056171
393.000000	0.056616
392.000000	0.056904
391.000000	0.057195
390.000000	0.057415
389.000000	0.057866
388.000000	0.058196
387.000000	0.058621
386.000000	0.059014
385.000000	0.059444
384.000000	0.059857
383.000000	0.060256
382.000000	0.060681
381.000000	0.061063
380.000000	0.061463
379.000000	0.061936
378.000000	0.062701
377.000000	0.063080
376.000000	0.063630
375.000000	0.064011
374.000000	0.064592
373.000000	0.064958
372.000000	0.065540
371.000000	0.066054
370.000000	0.066409
369.000000	0.066915
368.000000	0.067464
367.000000	0.067961
366.000000	0.068429
365.000000	0.069031
364.000000	0.069696
363.000000	0.069973
362.000000	0.070543
361.000000	0.071153
360.000000	0.071777
359.000000	0.072291
358.000000	0.072898
357.000000	0.073522
356.000000	0.074008
355.000000	0.074598
354.000000	0.075300
353.000000	0.075902
352.000000	0.076535
351.000000	0.077011
350.000000	0.077645
349.000000	0.078111
348.000000	0.078808
347.000000	0.079574
346.000000	0.080213
345.000000	0.080731
344.000000	0.081422
343.000000	0.082171
342.000000	0.082862
341.000000	0.083489
340.000000	0.084262
339.000000	0.084979
338.000000	0.085562
337.000000	0.086279
336.000000	0.087028
335.000000	0.087740
334.000000	0.088537
333.000000	0.089332
332.000000	0.090200
331.000000	0.091093
330.000000	0.091880
329.000000	0.092620
328.000000	0.093494
327.000000	0.094344
326.000000	0.095205
325.000000	0.096134
324.000000	0.097151
323.000000	0.098058
322.000000	0.099103
321.000000	0.100152
320.000000	0.101054
319.000000	0.102038
318.000000	0.103702
317.000000	0.106042
316.000000	0.107175
315.000000	0.108368
314.000000	0.109470
313.000000	0.110651
312.000000	0.111922
311.000000	0.113097
310.000000	0.114353
309.000000	0.115625
308.000000	0.116945
307.000000	0.118280
306.000000	0.119530
305.000000	0.120913
304.000000	0.122420
303.000000	0.123751
302.000000	0.125172
301.000000	0.126815
300.000000	0.128332
299.000000	0.129688
298.000000	0.131282
297.000000	0.133063
296.000000	0.134611
295.000000	0.136285
294.000000	0.138147
293.000000	0.139941
292.000000	0.141601
291.000000	0.143338
290.000000	0.145264
289.000000	0.147210
288.000000	0.149041
287.000000	0.150999
286.000000	0.153068
285.000000	0.154978
284.000000	0.156929
283.000000	0.159020
282.000000	0.161064
281.000000	0.162993
280.000000	0.165144
279.000000	0.167232
278.000000	0.169160
277.000000	0.171214
276.000000	0.173237
275.000000	0.175293
274.000000	0.177404
273.000000	0.179512
272.000000	0.181724
271.000000	0.183788
270.000000	0.185783
269.000000	0.187856
268.000000	0.189893
267.000000	0.191774
266.000000	0.193656
265.000000	0.195650
264.000000	0.197457
263.000000	0.199223
262.000000	0.201044
261.000000	0.202818
260.000000	0.204407
259.000000	0.205936
258.000000	0.207581
257.000000	0.209208
256.000000	0.210687
255.000000	0.212167
254.000000	0.213722
253.000000	0.215215
252.000000	0.216735
251.000000	0.218512
250.000000	0.220213
249.000000	0.221808
248.000000	0.223539
247.000000	0.225554
246.000000	0.227664
245.000000	0.229714
244.000000	0.232066
243.000000	0.234656
242.000000	0.237084
241.000000	0.239775
240.000000	0.242734
239.000000	0.245870
238.000000	0.249151
237.000000	0.252573
236.000000	0.256272
235.000000	0.260072
234.000000	0.264047
233.000000	0.268334
232.000000	0.272919
231.000000	0.277616
230.000000	0.282488
229.000000	0.287642
228.000000	0.293099
227.000000	0.298859
226.000000	0.305058
225.000000	0.311729
224.000000	0.318617
223.000000	0.326273
222.000000	0.334940
221.000000	0.344441
220.000000	0.354508
219.000000	0.365761
218.000000	0.378121
217.000000	0.392176
216.000000	0.408003
215.000000	0.426401
214.000000	0.447582
213.000000	0.471860
212.000000	0.499984
211.000000	0.532522
210.000000	0.569670
209.000000	0.612315
208.000000	0.661152
207.000000	0.718555
206.000000	0.785533
205.000000	0.864925
204.000000	0.959690
203.000000	1.077504
202.000000	1.224122
201.000000	1.412814
200.000000	1.659419
