PE UV       SUBTECH     SPECTRUM    ASCII       PEDS        4.00        
   -1
KI4-02B.Sample.Raw.asc
11/05/20
12:25:09.00
11/05/20
12:25:09.00
Hermanni Kaartokallio

200.000000
1
Lambda 650
650N8121101
PerkinElmer UV WinLab 6.0.2.0723 / 1.61.00 Lambda 650

0
0
2
0
0
UV/VIS
1
1
1
uv/vis/nir detector
0
0
0
0
Fix
 
0
0.24
0
0
0
 
 
 
0
 
0
319.2
0
Front
100
 
 
 
0
0
0
 
0
 
 
 
0
 
 
0
0
0
0
0
 
 
 
 
0
0
#HDR
-1
-1
#GR
nm
A
1.0
0.0
800.000000
-1.000000
601
8
1.644113
0.037880
#DATA
800.000000	0.047235
799.000000	0.047212
798.000000	0.047496
797.000000	0.047582
796.000000	0.047421
795.000000	0.047587
794.000000	0.047469
793.000000	0.047703
792.000000	0.047838
791.000000	0.048092
790.000000	0.048354
789.000000	0.048319
788.000000	0.048575
787.000000	0.048510
786.000000	0.048616
785.000000	0.048610
784.000000	0.048644
783.000000	0.048732
782.000000	0.048653
781.000000	0.048716
780.000000	0.048739
779.000000	0.048689
778.000000	0.048463
777.000000	0.048356
776.000000	0.048393
775.000000	0.048291
774.000000	0.048196
773.000000	0.048226
772.000000	0.048159
771.000000	0.048009
770.000000	0.048039
769.000000	0.048014
768.000000	0.047957
767.000000	0.047964
766.000000	0.047982
765.000000	0.048210
764.000000	0.048144
763.000000	0.048238
762.000000	0.048288
761.000000	0.048278
760.000000	0.048340
759.000000	0.048281
758.000000	0.048470
757.000000	0.048612
756.000000	0.048629
755.000000	0.048301
754.000000	0.048325
753.000000	0.048258
752.000000	0.048295
751.000000	0.048423
750.000000	0.048542
749.000000	0.048399
748.000000	0.048331
747.000000	0.048512
746.000000	0.048499
745.000000	0.048500
744.000000	0.048600
743.000000	0.048589
742.000000	0.048612
741.000000	0.048442
740.000000	0.048316
739.000000	0.048160
738.000000	0.047993
737.000000	0.047719
736.000000	0.047543
735.000000	0.047205
734.000000	0.046715
733.000000	0.046367
732.000000	0.046028
731.000000	0.045406
730.000000	0.045005
729.000000	0.044757
728.000000	0.044308
727.000000	0.043818
726.000000	0.043599
725.000000	0.043396
724.000000	0.043066
723.000000	0.042818
722.000000	0.042634
721.000000	0.042345
720.000000	0.042061
719.000000	0.041811
718.000000	0.041610
717.000000	0.041354
716.000000	0.040888
715.000000	0.040614
714.000000	0.040303
713.000000	0.039866
712.000000	0.039653
711.000000	0.039498
710.000000	0.039207
709.000000	0.038900
708.000000	0.038718
707.000000	0.038598
706.000000	0.038425
705.000000	0.038340
704.000000	0.038390
703.000000	0.038420
702.000000	0.038460
701.000000	0.038459
700.000000	0.038470
699.000000	0.038447
698.000000	0.038464
697.000000	0.038482
696.000000	0.038517
695.000000	0.038520
694.000000	0.038541
693.000000	0.038652
692.000000	0.038552
691.000000	0.038486
690.000000	0.038532
689.000000	0.038438
688.000000	0.038292
687.000000	0.038291
686.000000	0.038301
685.000000	0.038290
684.000000	0.038203
683.000000	0.038164
682.000000	0.038250
681.000000	0.038069
680.000000	0.037992
679.000000	0.038130
678.000000	0.038015
677.000000	0.037880
676.000000	0.038038
675.000000	0.037975
674.000000	0.037950
673.000000	0.038077
672.000000	0.038144
671.000000	0.038106
670.000000	0.038250
669.000000	0.038306
668.000000	0.038413
667.000000	0.038509
666.000000	0.038466
665.000000	0.038667
664.000000	0.038833
663.000000	0.038800
662.000000	0.038907
661.000000	0.039092
660.000000	0.039029
659.000000	0.038982
658.000000	0.039127
657.000000	0.039278
656.000000	0.039192
655.000000	0.039212
654.000000	0.039297
653.000000	0.039389
652.000000	0.039347
651.000000	0.039374
650.000000	0.039350
649.000000	0.039388
648.000000	0.039195
647.000000	0.039158
646.000000	0.039198
645.000000	0.039039
644.000000	0.038937
643.000000	0.039019
642.000000	0.038858
641.000000	0.038680
640.000000	0.038685
639.000000	0.038517
638.000000	0.038640
637.000000	0.038476
636.000000	0.038453
635.000000	0.038399
634.000000	0.038476
633.000000	0.038508
632.000000	0.038516
631.000000	0.038556
630.000000	0.038669
629.000000	0.038712
628.000000	0.038690
627.000000	0.038688
626.000000	0.038773
625.000000	0.038869
624.000000	0.038914
623.000000	0.038822
622.000000	0.039079
621.000000	0.039034
620.000000	0.039137
619.000000	0.039149
618.000000	0.039509
617.000000	0.039481
616.000000	0.039322
615.000000	0.039330
614.000000	0.039619
613.000000	0.039522
612.000000	0.039525
611.000000	0.039661
610.000000	0.039634
609.000000	0.039534
608.000000	0.039635
607.000000	0.039787
606.000000	0.039772
605.000000	0.039966
604.000000	0.039895
603.000000	0.039834
602.000000	0.039863
601.000000	0.039817
600.000000	0.039806
599.000000	0.040017
598.000000	0.039893
597.000000	0.039820
596.000000	0.040017
595.000000	0.039922
594.000000	0.039963
593.000000	0.040102
592.000000	0.040060
591.000000	0.040014
590.000000	0.040096
589.000000	0.040037
588.000000	0.040117
587.000000	0.040273
586.000000	0.040155
585.000000	0.040131
584.000000	0.040169
583.000000	0.040139
582.000000	0.040208
581.000000	0.040392
580.000000	0.040269
579.000000	0.040190
578.000000	0.040161
577.000000	0.040234
576.000000	0.040353
575.000000	0.040407
574.000000	0.040296
573.000000	0.040274
572.000000	0.040103
571.000000	0.040283
570.000000	0.040256
569.000000	0.040345
568.000000	0.040159
567.000000	0.040075
566.000000	0.039976
565.000000	0.039956
564.000000	0.039968
563.000000	0.039960
562.000000	0.039834
561.000000	0.039839
560.000000	0.039987
559.000000	0.039840
558.000000	0.039751
557.000000	0.039695
556.000000	0.039648
555.000000	0.039575
554.000000	0.039574
553.000000	0.039492
552.000000	0.039440
551.000000	0.039430
550.000000	0.039409
549.000000	0.039397
548.000000	0.039359
547.000000	0.039368
546.000000	0.039353
545.000000	0.039326
544.000000	0.039314
543.000000	0.039307
542.000000	0.039412
541.000000	0.039433
540.000000	0.039371
539.000000	0.039421
538.000000	0.039462
537.000000	0.039534
536.000000	0.039714
535.000000	0.039660
534.000000	0.039743
533.000000	0.039714
532.000000	0.039879
531.000000	0.039929
530.000000	0.039874
529.000000	0.040002
528.000000	0.040147
527.000000	0.040130
526.000000	0.040121
525.000000	0.040236
524.000000	0.040309
523.000000	0.040329
522.000000	0.040408
521.000000	0.040427
520.000000	0.040574
519.000000	0.040747
518.000000	0.040769
517.000000	0.040788
516.000000	0.040825
515.000000	0.040942
514.000000	0.040983
513.000000	0.041110
512.000000	0.041261
511.000000	0.041306
510.000000	0.041310
509.000000	0.041355
508.000000	0.041441
507.000000	0.041555
506.000000	0.041619
505.000000	0.041650
504.000000	0.041824
503.000000	0.041827
502.000000	0.041863
501.000000	0.042069
500.000000	0.042144
499.000000	0.042061
498.000000	0.042264
497.000000	0.042466
496.000000	0.042575
495.000000	0.042654
494.000000	0.042694
493.000000	0.042748
492.000000	0.042864
491.000000	0.043015
490.000000	0.043238
489.000000	0.043288
488.000000	0.043256
487.000000	0.043323
486.000000	0.043451
485.000000	0.043526
484.000000	0.043618
483.000000	0.043680
482.000000	0.043587
481.000000	0.043551
480.000000	0.043706
479.000000	0.043925
478.000000	0.043925
477.000000	0.043856
476.000000	0.043900
475.000000	0.043998
474.000000	0.044077
473.000000	0.044277
472.000000	0.044348
471.000000	0.044278
470.000000	0.044205
469.000000	0.044353
468.000000	0.044507
467.000000	0.044580
466.000000	0.044582
465.000000	0.044586
464.000000	0.044672
463.000000	0.044817
462.000000	0.044849
461.000000	0.045020
460.000000	0.045037
459.000000	0.044920
458.000000	0.044962
457.000000	0.045112
456.000000	0.045181
455.000000	0.045357
454.000000	0.045364
453.000000	0.045350
452.000000	0.045265
451.000000	0.045412
450.000000	0.045651
449.000000	0.045778
448.000000	0.045727
447.000000	0.045846
446.000000	0.045960
445.000000	0.046034
444.000000	0.046096
443.000000	0.046445
442.000000	0.046438
441.000000	0.046497
440.000000	0.046529
439.000000	0.046765
438.000000	0.046883
437.000000	0.047113
436.000000	0.047245
435.000000	0.047331
434.000000	0.047300
433.000000	0.047530
432.000000	0.047780
431.000000	0.047997
430.000000	0.048012
429.000000	0.048211
428.000000	0.048333
427.000000	0.048495
426.000000	0.048725
425.000000	0.049067
424.000000	0.049173
423.000000	0.049211
422.000000	0.049333
421.000000	0.049633
420.000000	0.049832
419.000000	0.050060
418.000000	0.050271
417.000000	0.050392
416.000000	0.050344
415.000000	0.050689
414.000000	0.051175
413.000000	0.051366
412.000000	0.051400
411.000000	0.051613
410.000000	0.051860
409.000000	0.052049
408.000000	0.052337
407.000000	0.052742
406.000000	0.052842
405.000000	0.052928
404.000000	0.053166
403.000000	0.053674
402.000000	0.053917
401.000000	0.054143
400.000000	0.054397
399.000000	0.054686
398.000000	0.054842
397.000000	0.055271
396.000000	0.055817
395.000000	0.056173
394.000000	0.056279
393.000000	0.056546
392.000000	0.056881
391.000000	0.057276
390.000000	0.057537
389.000000	0.058219
388.000000	0.058430
387.000000	0.058620
386.000000	0.058913
385.000000	0.059596
384.000000	0.060018
383.000000	0.060361
382.000000	0.060875
381.000000	0.061272
380.000000	0.061391
379.000000	0.061898
378.000000	0.062499
377.000000	0.062795
376.000000	0.063173
375.000000	0.063713
374.000000	0.064325
373.000000	0.064683
372.000000	0.065101
371.000000	0.065807
370.000000	0.066276
369.000000	0.066608
368.000000	0.067107
367.000000	0.067727
366.000000	0.068181
365.000000	0.068646
364.000000	0.069389
363.000000	0.069933
362.000000	0.070212
361.000000	0.070831
360.000000	0.071525
359.000000	0.072092
358.000000	0.072572
357.000000	0.073207
356.000000	0.073750
355.000000	0.074339
354.000000	0.074914
353.000000	0.075713
352.000000	0.076294
351.000000	0.076646
350.000000	0.077283
349.000000	0.077929
348.000000	0.078514
347.000000	0.079167
346.000000	0.079904
345.000000	0.080604
344.000000	0.081107
343.000000	0.081801
342.000000	0.082547
341.000000	0.083149
340.000000	0.083743
339.000000	0.084507
338.000000	0.085237
337.000000	0.085953
336.000000	0.086766
335.000000	0.087546
334.000000	0.088260
333.000000	0.088936
332.000000	0.089763
331.000000	0.090719
330.000000	0.091537
329.000000	0.092348
328.000000	0.093272
327.000000	0.094121
326.000000	0.094917
325.000000	0.095725
324.000000	0.096824
323.000000	0.097857
322.000000	0.098775
321.000000	0.099815
320.000000	0.100904
319.000000	0.101799
318.000000	0.103291
317.000000	0.105449
316.000000	0.106505
315.000000	0.107574
314.000000	0.108889
313.000000	0.109934
312.000000	0.111222
311.000000	0.112444
310.000000	0.113694
309.000000	0.114891
308.000000	0.116107
307.000000	0.117534
306.000000	0.118787
305.000000	0.120095
304.000000	0.121530
303.000000	0.122890
302.000000	0.124246
301.000000	0.125796
300.000000	0.127260
299.000000	0.128741
298.000000	0.130318
297.000000	0.131970
296.000000	0.133509
295.000000	0.135080
294.000000	0.136872
293.000000	0.138668
292.000000	0.140398
291.000000	0.142253
290.000000	0.144154
289.000000	0.146060
288.000000	0.147788
287.000000	0.149664
286.000000	0.151750
285.000000	0.153696
284.000000	0.155618
283.000000	0.157534
282.000000	0.159486
281.000000	0.161518
280.000000	0.163568
279.000000	0.165588
278.000000	0.167573
277.000000	0.169550
276.000000	0.171585
275.000000	0.173649
274.000000	0.175784
273.000000	0.177850
272.000000	0.179955
271.000000	0.182041
270.000000	0.184047
269.000000	0.186101
268.000000	0.188119
267.000000	0.190081
266.000000	0.191927
265.000000	0.193839
264.000000	0.195688
263.000000	0.197489
262.000000	0.199275
261.000000	0.200989
260.000000	0.202667
259.000000	0.204232
258.000000	0.205774
257.000000	0.207338
256.000000	0.208939
255.000000	0.210463
254.000000	0.211970
253.000000	0.213508
252.000000	0.215085
251.000000	0.216763
250.000000	0.218469
249.000000	0.220134
248.000000	0.221947
247.000000	0.223906
246.000000	0.225887
245.000000	0.228138
244.000000	0.230472
243.000000	0.232998
242.000000	0.235519
241.000000	0.238291
240.000000	0.241125
239.000000	0.244217
238.000000	0.247576
237.000000	0.251089
236.000000	0.254783
235.000000	0.258546
234.000000	0.262541
233.000000	0.267041
232.000000	0.271489
231.000000	0.276161
230.000000	0.281007
229.000000	0.285956
228.000000	0.291363
227.000000	0.297125
226.000000	0.303322
225.000000	0.309773
224.000000	0.316542
223.000000	0.324258
222.000000	0.332710
221.000000	0.341884
220.000000	0.351896
219.000000	0.362887
218.000000	0.374982
217.000000	0.388932
216.000000	0.404294
215.000000	0.422361
214.000000	0.443150
213.000000	0.467207
212.000000	0.494963
211.000000	0.527058
210.000000	0.563919
209.000000	0.605965
208.000000	0.654434
207.000000	0.710834
206.000000	0.777351
205.000000	0.856272
204.000000	0.950406
203.000000	1.067028
202.000000	1.212195
201.000000	1.399810
200.000000	1.644113
