PE UV       SUBTECH     SPECTRUM    ASCII       PEDS        4.00        
   -1
KI4-03B.Sample.Raw.asc
11/05/20
12:34:10.00
11/05/20
12:34:10.00
Hermanni Kaartokallio

200.000000
1
Lambda 650
650N8121101
PerkinElmer UV WinLab 6.0.2.0723 / 1.61.00 Lambda 650

0
0
2
0
0
UV/VIS
1
1
1
uv/vis/nir detector
0
0
0
0
Fix
 
0
0.24
0
0
0
 
 
 
0
 
0
319.2
0
Front
100
 
 
 
0
0
0
 
0
 
 
 
0
 
 
0
0
0
0
0
 
 
 
 
0
0
#HDR
-1
-1
#GR
nm
A
1.0
0.0
800.000000
-1.000000
601
8
1.692323
0.037453
#DATA
800.000000	0.046823
799.000000	0.046849
798.000000	0.047048
797.000000	0.047105
796.000000	0.047099
795.000000	0.047121
794.000000	0.047199
793.000000	0.047418
792.000000	0.047598
791.000000	0.047648
790.000000	0.047808
789.000000	0.047988
788.000000	0.048138
787.000000	0.048162
786.000000	0.048145
785.000000	0.048168
784.000000	0.048140
783.000000	0.048198
782.000000	0.048202
781.000000	0.048194
780.000000	0.048284
779.000000	0.048216
778.000000	0.048065
777.000000	0.047942
776.000000	0.047860
775.000000	0.047850
774.000000	0.047825
773.000000	0.047893
772.000000	0.047740
771.000000	0.047664
770.000000	0.047662
769.000000	0.047704
768.000000	0.047724
767.000000	0.047668
766.000000	0.047743
765.000000	0.047858
764.000000	0.047754
763.000000	0.047896
762.000000	0.048002
761.000000	0.047898
760.000000	0.047910
759.000000	0.047996
758.000000	0.048141
757.000000	0.048192
756.000000	0.048181
755.000000	0.048188
754.000000	0.048099
753.000000	0.048130
752.000000	0.048037
751.000000	0.048127
750.000000	0.048316
749.000000	0.048218
748.000000	0.048188
747.000000	0.048243
746.000000	0.048189
745.000000	0.048227
744.000000	0.048305
743.000000	0.048269
742.000000	0.048147
741.000000	0.048053
740.000000	0.047953
739.000000	0.047791
738.000000	0.047623
737.000000	0.047423
736.000000	0.047129
735.000000	0.046758
734.000000	0.046308
733.000000	0.045924
732.000000	0.045453
731.000000	0.044953
730.000000	0.044516
729.000000	0.044162
728.000000	0.043659
727.000000	0.043333
726.000000	0.043200
725.000000	0.042922
724.000000	0.042493
723.000000	0.042231
722.000000	0.041966
721.000000	0.041655
720.000000	0.041409
719.000000	0.041084
718.000000	0.040691
717.000000	0.040321
716.000000	0.039994
715.000000	0.039761
714.000000	0.039483
713.000000	0.039097
712.000000	0.038818
711.000000	0.038644
710.000000	0.038361
709.000000	0.038189
708.000000	0.038118
707.000000	0.038002
706.000000	0.037814
705.000000	0.037661
704.000000	0.037748
703.000000	0.037776
702.000000	0.037797
701.000000	0.037838
700.000000	0.037835
699.000000	0.037817
698.000000	0.037808
697.000000	0.037841
696.000000	0.037959
695.000000	0.037910
694.000000	0.037800
693.000000	0.037949
692.000000	0.037957
691.000000	0.037912
690.000000	0.037964
689.000000	0.037889
688.000000	0.037800
687.000000	0.037866
686.000000	0.037812
685.000000	0.037685
684.000000	0.037642
683.000000	0.037668
682.000000	0.037666
681.000000	0.037648
680.000000	0.037623
679.000000	0.037627
678.000000	0.037523
677.000000	0.037453
676.000000	0.037577
675.000000	0.037586
674.000000	0.037497
673.000000	0.037577
672.000000	0.037667
671.000000	0.037670
670.000000	0.037728
669.000000	0.037888
668.000000	0.037964
667.000000	0.038007
666.000000	0.037964
665.000000	0.038055
664.000000	0.038187
663.000000	0.038241
662.000000	0.038282
661.000000	0.038432
660.000000	0.038467
659.000000	0.038455
658.000000	0.038627
657.000000	0.038685
656.000000	0.038591
655.000000	0.038603
654.000000	0.038645
653.000000	0.038699
652.000000	0.038658
651.000000	0.038716
650.000000	0.038675
649.000000	0.038573
648.000000	0.038437
647.000000	0.038431
646.000000	0.038454
645.000000	0.038282
644.000000	0.038193
643.000000	0.038141
642.000000	0.038041
641.000000	0.037882
640.000000	0.037897
639.000000	0.037873
638.000000	0.037651
637.000000	0.037600
636.000000	0.037607
635.000000	0.037575
634.000000	0.037650
633.000000	0.037753
632.000000	0.037665
631.000000	0.037740
630.000000	0.037759
629.000000	0.037891
628.000000	0.038053
627.000000	0.038022
626.000000	0.038026
625.000000	0.038194
624.000000	0.038220
623.000000	0.038233
622.000000	0.038383
621.000000	0.038544
620.000000	0.038481
619.000000	0.038542
618.000000	0.038707
617.000000	0.038731
616.000000	0.038819
615.000000	0.038886
614.000000	0.038978
613.000000	0.038931
612.000000	0.038937
611.000000	0.039042
610.000000	0.039229
609.000000	0.039173
608.000000	0.039083
607.000000	0.039183
606.000000	0.039137
605.000000	0.039168
604.000000	0.039315
603.000000	0.039389
602.000000	0.039181
601.000000	0.039308
600.000000	0.039224
599.000000	0.039150
598.000000	0.039292
597.000000	0.039220
596.000000	0.039268
595.000000	0.039278
594.000000	0.039173
593.000000	0.039223
592.000000	0.039334
591.000000	0.039308
590.000000	0.039418
589.000000	0.039405
588.000000	0.039413
587.000000	0.039373
586.000000	0.039439
585.000000	0.039582
584.000000	0.039563
583.000000	0.039335
582.000000	0.039534
581.000000	0.039556
580.000000	0.039559
579.000000	0.039572
578.000000	0.039652
577.000000	0.039588
576.000000	0.039581
575.000000	0.039574
574.000000	0.039629
573.000000	0.039633
572.000000	0.039460
571.000000	0.039499
570.000000	0.039502
569.000000	0.039380
568.000000	0.039327
567.000000	0.039407
566.000000	0.039263
565.000000	0.039043
564.000000	0.039008
563.000000	0.038858
562.000000	0.038780
561.000000	0.038778
560.000000	0.038872
559.000000	0.038777
558.000000	0.038656
557.000000	0.038540
556.000000	0.038500
555.000000	0.038459
554.000000	0.038421
553.000000	0.038353
552.000000	0.038228
551.000000	0.038176
550.000000	0.038194
549.000000	0.038195
548.000000	0.038184
547.000000	0.038149
546.000000	0.038092
545.000000	0.038129
544.000000	0.038064
543.000000	0.038169
542.000000	0.038308
541.000000	0.038274
540.000000	0.038262
539.000000	0.038319
538.000000	0.038317
537.000000	0.038443
536.000000	0.038546
535.000000	0.038568
534.000000	0.038596
533.000000	0.038688
532.000000	0.038763
531.000000	0.038835
530.000000	0.038933
529.000000	0.039020
528.000000	0.039011
527.000000	0.039103
526.000000	0.039120
525.000000	0.039231
524.000000	0.039361
523.000000	0.039403
522.000000	0.039371
521.000000	0.039469
520.000000	0.039568
519.000000	0.039651
518.000000	0.039697
517.000000	0.039713
516.000000	0.039749
515.000000	0.039857
514.000000	0.039917
513.000000	0.039996
512.000000	0.040121
511.000000	0.040140
510.000000	0.040171
509.000000	0.040190
508.000000	0.040243
507.000000	0.040402
506.000000	0.040542
505.000000	0.040629
504.000000	0.040700
503.000000	0.040725
502.000000	0.040772
501.000000	0.040939
500.000000	0.041089
499.000000	0.041127
498.000000	0.041207
497.000000	0.041361
496.000000	0.041448
495.000000	0.041559
494.000000	0.041705
493.000000	0.041743
492.000000	0.041748
491.000000	0.041864
490.000000	0.041962
489.000000	0.042072
488.000000	0.042177
487.000000	0.042199
486.000000	0.042259
485.000000	0.042294
484.000000	0.042324
483.000000	0.042423
482.000000	0.042493
481.000000	0.042411
480.000000	0.042412
479.000000	0.042515
478.000000	0.042515
477.000000	0.042601
476.000000	0.042734
475.000000	0.042725
474.000000	0.042621
473.000000	0.042662
472.000000	0.042799
471.000000	0.042821
470.000000	0.042859
469.000000	0.042869
468.000000	0.042923
467.000000	0.042922
466.000000	0.042933
465.000000	0.043005
464.000000	0.043101
463.000000	0.043124
462.000000	0.043088
461.000000	0.043188
460.000000	0.043224
459.000000	0.043195
458.000000	0.043304
457.000000	0.043357
456.000000	0.043311
455.000000	0.043372
454.000000	0.043458
453.000000	0.043561
452.000000	0.043618
451.000000	0.043628
450.000000	0.043684
449.000000	0.043759
448.000000	0.043783
447.000000	0.044047
446.000000	0.044165
445.000000	0.044079
444.000000	0.044138
443.000000	0.044351
442.000000	0.044426
441.000000	0.044604
440.000000	0.044788
439.000000	0.044822
438.000000	0.044868
437.000000	0.044988
436.000000	0.045119
435.000000	0.045310
434.000000	0.045361
433.000000	0.045520
432.000000	0.045622
431.000000	0.045830
430.000000	0.045872
429.000000	0.046177
428.000000	0.046351
427.000000	0.046281
426.000000	0.046567
425.000000	0.046711
424.000000	0.046864
423.000000	0.047011
422.000000	0.047203
421.000000	0.047317
420.000000	0.047471
419.000000	0.047573
418.000000	0.047909
417.000000	0.048077
416.000000	0.048200
415.000000	0.048271
414.000000	0.048550
413.000000	0.048697
412.000000	0.048884
411.000000	0.049206
410.000000	0.049488
409.000000	0.049460
408.000000	0.049639
407.000000	0.049926
406.000000	0.050165
405.000000	0.050367
404.000000	0.050648
403.000000	0.050979
402.000000	0.051105
401.000000	0.051216
400.000000	0.051524
399.000000	0.052010
398.000000	0.052236
397.000000	0.052395
396.000000	0.052771
395.000000	0.053012
394.000000	0.053214
393.000000	0.053798
392.000000	0.054085
391.000000	0.054277
390.000000	0.054588
389.000000	0.054991
388.000000	0.055341
387.000000	0.055683
386.000000	0.055984
385.000000	0.056407
384.000000	0.056737
383.000000	0.057101
382.000000	0.057524
381.000000	0.058034
380.000000	0.058276
379.000000	0.058559
378.000000	0.059131
377.000000	0.059417
376.000000	0.059818
375.000000	0.060240
374.000000	0.060741
373.000000	0.060968
372.000000	0.061509
371.000000	0.062138
370.000000	0.062431
369.000000	0.062794
368.000000	0.063318
367.000000	0.063875
366.000000	0.064130
365.000000	0.064731
364.000000	0.065333
363.000000	0.065655
362.000000	0.065951
361.000000	0.066516
360.000000	0.067203
359.000000	0.067752
358.000000	0.068138
357.000000	0.068643
356.000000	0.069079
355.000000	0.069538
354.000000	0.070121
353.000000	0.070867
352.000000	0.071393
351.000000	0.071730
350.000000	0.072335
349.000000	0.072875
348.000000	0.073381
347.000000	0.074006
346.000000	0.074720
345.000000	0.075139
344.000000	0.075657
343.000000	0.076393
342.000000	0.077070
341.000000	0.077721
340.000000	0.078171
339.000000	0.078859
338.000000	0.079533
337.000000	0.080178
336.000000	0.080951
335.000000	0.081646
334.000000	0.082341
333.000000	0.082980
332.000000	0.083734
331.000000	0.084577
330.000000	0.085306
329.000000	0.086078
328.000000	0.086956
327.000000	0.087844
326.000000	0.088537
325.000000	0.089248
324.000000	0.090298
323.000000	0.091152
322.000000	0.092001
321.000000	0.093015
320.000000	0.093984
319.000000	0.094848
318.000000	0.096208
317.000000	0.098105
316.000000	0.099059
315.000000	0.100188
314.000000	0.101244
313.000000	0.102262
312.000000	0.103394
311.000000	0.104524
310.000000	0.105733
309.000000	0.106818
308.000000	0.108077
307.000000	0.109330
306.000000	0.110407
305.000000	0.111583
304.000000	0.112990
303.000000	0.114343
302.000000	0.115560
301.000000	0.116958
300.000000	0.118375
299.000000	0.119758
298.000000	0.121265
297.000000	0.122783
296.000000	0.124186
295.000000	0.125716
294.000000	0.127373
293.000000	0.129124
292.000000	0.130725
291.000000	0.132255
290.000000	0.134222
289.000000	0.136031
288.000000	0.137675
287.000000	0.139490
286.000000	0.141375
285.000000	0.143191
284.000000	0.144987
283.000000	0.146826
282.000000	0.148714
281.000000	0.150623
280.000000	0.152596
279.000000	0.154378
278.000000	0.156247
277.000000	0.158186
276.000000	0.160029
275.000000	0.162021
274.000000	0.164041
273.000000	0.165949
272.000000	0.167935
271.000000	0.169968
270.000000	0.171885
269.000000	0.173815
268.000000	0.175722
267.000000	0.177532
266.000000	0.179251
265.000000	0.181046
264.000000	0.182794
263.000000	0.184504
262.000000	0.186159
261.000000	0.187803
260.000000	0.189343
259.000000	0.190775
258.000000	0.192242
257.000000	0.193814
256.000000	0.195310
255.000000	0.196638
254.000000	0.198047
253.000000	0.199467
252.000000	0.200940
251.000000	0.202506
250.000000	0.204093
249.000000	0.205667
248.000000	0.207428
247.000000	0.209247
246.000000	0.211129
245.000000	0.213247
244.000000	0.215376
243.000000	0.217717
242.000000	0.220133
241.000000	0.222794
240.000000	0.225533
239.000000	0.228557
238.000000	0.231719
237.000000	0.234937
236.000000	0.238367
235.000000	0.242104
234.000000	0.245911
233.000000	0.250116
232.000000	0.254338
231.000000	0.258753
230.000000	0.263504
229.000000	0.268333
228.000000	0.273552
227.000000	0.279193
226.000000	0.285191
225.000000	0.291443
224.000000	0.298317
223.000000	0.305664
222.000000	0.313806
221.000000	0.322949
220.000000	0.332941
219.000000	0.343922
218.000000	0.356153
217.000000	0.370239
216.000000	0.386340
215.000000	0.404526
214.000000	0.425774
213.000000	0.450473
212.000000	0.479228
211.000000	0.512411
210.000000	0.550780
209.000000	0.594886
208.000000	0.646071
207.000000	0.705083
206.000000	0.774769
205.000000	0.857528
204.000000	0.956910
203.000000	1.080369
202.000000	1.234657
201.000000	1.433172
200.000000	1.692323
