PE UV       SUBTECH     SPECTRUM    ASCII       PEDS        4.00        
   -1
KI4-03A.Sample.Raw.asc
11/05/20
12:29:45.00
11/05/20
12:29:45.00
Hermanni Kaartokallio

200.000000
1
Lambda 650
650N8121101
PerkinElmer UV WinLab 6.0.2.0723 / 1.61.00 Lambda 650

0
0
2
0
0
UV/VIS
1
1
1
uv/vis/nir detector
0
0
0
0
Fix
 
0
0.24
0
0
0
 
 
 
0
 
0
319.2
0
Front
100
 
 
 
0
0
0
 
0
 
 
 
0
 
 
0
0
0
0
0
 
 
 
 
0
0
#HDR
-1
-1
#GR
nm
A
1.0
0.0
800.000000
-1.000000
601
8
1.639363
0.037376
#DATA
800.000000	0.046489
799.000000	0.046539
798.000000	0.046841
797.000000	0.046895
796.000000	0.046958
795.000000	0.047016
794.000000	0.046841
793.000000	0.047075
792.000000	0.047362
791.000000	0.047448
790.000000	0.047642
789.000000	0.047881
788.000000	0.048013
787.000000	0.047946
786.000000	0.047916
785.000000	0.048090
784.000000	0.048120
783.000000	0.048114
782.000000	0.048067
781.000000	0.048095
780.000000	0.048117
779.000000	0.048078
778.000000	0.047967
777.000000	0.047764
776.000000	0.047680
775.000000	0.047769
774.000000	0.047722
773.000000	0.047732
772.000000	0.047616
771.000000	0.047457
770.000000	0.047501
769.000000	0.047522
768.000000	0.047528
767.000000	0.047409
766.000000	0.047482
765.000000	0.047622
764.000000	0.047593
763.000000	0.047616
762.000000	0.047792
761.000000	0.047787
760.000000	0.047756
759.000000	0.047770
758.000000	0.047855
757.000000	0.047865
756.000000	0.047865
755.000000	0.047943
754.000000	0.047809
753.000000	0.047881
752.000000	0.047876
751.000000	0.047882
750.000000	0.048149
749.000000	0.048084
748.000000	0.047986
747.000000	0.048005
746.000000	0.047991
745.000000	0.048019
744.000000	0.048085
743.000000	0.048040
742.000000	0.047855
741.000000	0.047855
740.000000	0.047783
739.000000	0.047579
738.000000	0.047414
737.000000	0.047225
736.000000	0.046894
735.000000	0.046593
734.000000	0.046221
733.000000	0.045886
732.000000	0.045364
731.000000	0.044857
730.000000	0.044479
729.000000	0.044051
728.000000	0.043564
727.000000	0.043155
726.000000	0.043015
725.000000	0.042773
724.000000	0.042407
723.000000	0.042166
722.000000	0.041928
721.000000	0.041639
720.000000	0.041399
719.000000	0.041074
718.000000	0.040733
717.000000	0.040375
716.000000	0.039995
715.000000	0.039772
714.000000	0.039508
713.000000	0.039085
712.000000	0.038812
711.000000	0.038627
710.000000	0.038391
709.000000	0.038190
708.000000	0.038047
707.000000	0.037917
706.000000	0.037801
705.000000	0.037693
704.000000	0.037790
703.000000	0.037814
702.000000	0.037743
701.000000	0.037702
700.000000	0.037583
699.000000	0.037556
698.000000	0.037658
697.000000	0.037672
696.000000	0.037743
695.000000	0.037774
694.000000	0.037683
693.000000	0.037756
692.000000	0.037716
691.000000	0.037698
690.000000	0.037791
689.000000	0.037715
688.000000	0.037626
687.000000	0.037676
686.000000	0.037631
685.000000	0.037541
684.000000	0.037544
683.000000	0.037556
682.000000	0.037576
681.000000	0.037527
680.000000	0.037517
679.000000	0.037538
678.000000	0.037425
677.000000	0.037376
676.000000	0.037457
675.000000	0.037512
674.000000	0.037460
673.000000	0.037487
672.000000	0.037623
671.000000	0.037613
670.000000	0.037643
669.000000	0.037894
668.000000	0.037995
667.000000	0.037988
666.000000	0.038047
665.000000	0.038150
664.000000	0.038267
663.000000	0.038321
662.000000	0.038370
661.000000	0.038515
660.000000	0.038535
659.000000	0.038541
658.000000	0.038687
657.000000	0.038796
656.000000	0.038718
655.000000	0.038727
654.000000	0.038832
653.000000	0.038797
652.000000	0.038758
651.000000	0.038843
650.000000	0.038833
649.000000	0.038757
648.000000	0.038687
647.000000	0.038721
646.000000	0.038687
645.000000	0.038563
644.000000	0.038508
643.000000	0.038432
642.000000	0.038349
641.000000	0.038181
640.000000	0.038218
639.000000	0.038212
638.000000	0.038025
637.000000	0.037928
636.000000	0.037900
635.000000	0.037797
634.000000	0.037849
633.000000	0.038031
632.000000	0.037993
631.000000	0.038001
630.000000	0.038007
629.000000	0.038152
628.000000	0.038214
627.000000	0.038230
626.000000	0.038269
625.000000	0.038434
624.000000	0.038372
623.000000	0.038380
622.000000	0.038574
621.000000	0.038719
620.000000	0.038700
619.000000	0.038671
618.000000	0.038813
617.000000	0.038883
616.000000	0.038872
615.000000	0.038972
614.000000	0.039022
613.000000	0.039004
612.000000	0.039014
611.000000	0.039151
610.000000	0.039268
609.000000	0.039256
608.000000	0.039183
607.000000	0.039322
606.000000	0.039251
605.000000	0.039261
604.000000	0.039386
603.000000	0.039495
602.000000	0.039308
601.000000	0.039320
600.000000	0.039395
599.000000	0.039334
598.000000	0.039349
597.000000	0.039428
596.000000	0.039404
595.000000	0.039392
594.000000	0.039357
593.000000	0.039399
592.000000	0.039515
591.000000	0.039508
590.000000	0.039685
589.000000	0.039705
588.000000	0.039825
587.000000	0.039739
586.000000	0.039873
585.000000	0.039931
584.000000	0.039986
583.000000	0.039822
582.000000	0.039942
581.000000	0.039977
580.000000	0.040053
579.000000	0.039902
578.000000	0.040093
577.000000	0.039982
576.000000	0.040058
575.000000	0.040089
574.000000	0.040060
573.000000	0.040080
572.000000	0.039965
571.000000	0.039964
570.000000	0.039942
569.000000	0.039870
568.000000	0.039810
567.000000	0.039822
566.000000	0.039834
565.000000	0.039633
564.000000	0.039628
563.000000	0.039480
562.000000	0.039417
561.000000	0.039403
560.000000	0.039471
559.000000	0.039418
558.000000	0.039265
557.000000	0.039237
556.000000	0.039171
555.000000	0.039081
554.000000	0.039074
553.000000	0.039071
552.000000	0.038941
551.000000	0.038887
550.000000	0.038923
549.000000	0.038893
548.000000	0.038836
547.000000	0.038909
546.000000	0.038883
545.000000	0.038884
544.000000	0.038839
543.000000	0.038938
542.000000	0.039076
541.000000	0.039101
540.000000	0.039056
539.000000	0.039129
538.000000	0.039161
537.000000	0.039194
536.000000	0.039366
535.000000	0.039458
534.000000	0.039465
533.000000	0.039522
532.000000	0.039576
531.000000	0.039661
530.000000	0.039812
529.000000	0.039882
528.000000	0.039905
527.000000	0.039917
526.000000	0.039980
525.000000	0.040141
524.000000	0.040250
523.000000	0.040304
522.000000	0.040291
521.000000	0.040356
520.000000	0.040493
519.000000	0.040589
518.000000	0.040645
517.000000	0.040695
516.000000	0.040719
515.000000	0.040816
514.000000	0.040904
513.000000	0.041008
512.000000	0.041132
511.000000	0.041200
510.000000	0.041259
509.000000	0.041270
508.000000	0.041332
507.000000	0.041489
506.000000	0.041664
505.000000	0.041757
504.000000	0.041809
503.000000	0.041846
502.000000	0.041930
501.000000	0.042039
500.000000	0.042171
499.000000	0.042277
498.000000	0.042388
497.000000	0.042514
496.000000	0.042629
495.000000	0.042709
494.000000	0.042841
493.000000	0.042947
492.000000	0.042993
491.000000	0.043121
490.000000	0.043228
489.000000	0.043352
488.000000	0.043445
487.000000	0.043473
486.000000	0.043569
485.000000	0.043639
484.000000	0.043715
483.000000	0.043800
482.000000	0.043816
481.000000	0.043787
480.000000	0.043882
479.000000	0.043966
478.000000	0.043973
477.000000	0.044060
476.000000	0.044233
475.000000	0.044268
474.000000	0.044186
473.000000	0.044277
472.000000	0.044393
471.000000	0.044439
470.000000	0.044555
469.000000	0.044604
468.000000	0.044627
467.000000	0.044655
466.000000	0.044688
465.000000	0.044753
464.000000	0.044910
463.000000	0.044931
462.000000	0.044909
461.000000	0.045065
460.000000	0.045045
459.000000	0.045131
458.000000	0.045305
457.000000	0.045322
456.000000	0.045303
455.000000	0.045373
454.000000	0.045486
453.000000	0.045555
452.000000	0.045636
451.000000	0.045687
450.000000	0.045776
449.000000	0.045851
448.000000	0.045978
447.000000	0.046272
446.000000	0.046432
445.000000	0.046358
444.000000	0.046411
443.000000	0.046610
442.000000	0.046737
441.000000	0.046978
440.000000	0.047140
439.000000	0.047254
438.000000	0.047382
437.000000	0.047519
436.000000	0.047676
435.000000	0.047859
434.000000	0.048015
433.000000	0.048271
432.000000	0.048354
431.000000	0.048464
430.000000	0.048643
429.000000	0.048966
428.000000	0.049189
427.000000	0.049262
426.000000	0.049503
425.000000	0.049637
424.000000	0.049849
423.000000	0.050055
422.000000	0.050320
421.000000	0.050523
420.000000	0.050678
419.000000	0.050857
418.000000	0.051131
417.000000	0.051334
416.000000	0.051554
415.000000	0.051719
414.000000	0.052085
413.000000	0.052281
412.000000	0.052391
411.000000	0.052763
410.000000	0.053161
409.000000	0.053184
408.000000	0.053481
407.000000	0.053829
406.000000	0.054061
405.000000	0.054315
404.000000	0.054658
403.000000	0.054969
402.000000	0.055180
401.000000	0.055421
400.000000	0.055844
399.000000	0.056193
398.000000	0.056543
397.000000	0.056845
396.000000	0.057260
395.000000	0.057576
394.000000	0.057835
393.000000	0.058446
392.000000	0.058836
391.000000	0.059061
390.000000	0.059418
389.000000	0.059965
388.000000	0.060355
387.000000	0.060701
386.000000	0.061240
385.000000	0.061729
384.000000	0.062084
383.000000	0.062435
382.000000	0.062985
381.000000	0.063518
380.000000	0.063910
379.000000	0.064327
378.000000	0.064985
377.000000	0.065341
376.000000	0.065937
375.000000	0.066458
374.000000	0.067096
373.000000	0.067380
372.000000	0.068012
371.000000	0.068697
370.000000	0.069160
369.000000	0.069416
368.000000	0.070196
367.000000	0.070853
366.000000	0.071243
365.000000	0.072025
364.000000	0.072619
363.000000	0.072984
362.000000	0.073498
361.000000	0.074258
360.000000	0.074901
359.000000	0.075542
358.000000	0.076161
357.000000	0.076789
356.000000	0.077402
355.000000	0.077963
354.000000	0.078609
353.000000	0.079528
352.000000	0.080115
351.000000	0.080639
350.000000	0.081353
349.000000	0.082033
348.000000	0.082735
347.000000	0.083535
346.000000	0.084367
345.000000	0.084997
344.000000	0.085603
343.000000	0.086424
342.000000	0.087316
341.000000	0.087898
340.000000	0.088665
339.000000	0.089509
338.000000	0.090193
337.000000	0.090937
336.000000	0.091861
335.000000	0.092862
334.000000	0.093546
333.000000	0.094308
332.000000	0.095188
331.000000	0.096232
330.000000	0.097069
329.000000	0.098016
328.000000	0.099083
327.000000	0.099989
326.000000	0.100866
325.000000	0.101814
324.000000	0.102963
323.000000	0.104081
322.000000	0.105068
321.000000	0.106275
320.000000	0.107313
319.000000	0.108307
318.000000	0.109872
317.000000	0.112164
316.000000	0.113295
315.000000	0.114714
314.000000	0.115892
313.000000	0.116989
312.000000	0.118327
311.000000	0.119686
310.000000	0.121048
309.000000	0.122260
308.000000	0.123485
307.000000	0.124909
306.000000	0.126327
305.000000	0.127750
304.000000	0.129377
303.000000	0.130842
302.000000	0.132274
301.000000	0.133940
300.000000	0.135616
299.000000	0.137200
298.000000	0.138887
297.000000	0.140585
296.000000	0.142230
295.000000	0.143960
294.000000	0.145835
293.000000	0.147748
292.000000	0.149576
291.000000	0.151450
290.000000	0.153560
289.000000	0.155524
288.000000	0.157431
287.000000	0.159459
286.000000	0.161599
285.000000	0.163647
284.000000	0.165670
283.000000	0.167791
282.000000	0.169914
281.000000	0.172018
280.000000	0.174137
279.000000	0.176257
278.000000	0.178364
277.000000	0.180407
276.000000	0.182462
275.000000	0.184701
274.000000	0.186921
273.000000	0.189048
272.000000	0.191276
271.000000	0.193510
270.000000	0.195584
269.000000	0.197673
268.000000	0.199846
267.000000	0.201915
266.000000	0.203775
265.000000	0.205769
264.000000	0.207708
263.000000	0.209550
262.000000	0.211425
261.000000	0.213271
260.000000	0.215042
259.000000	0.216590
258.000000	0.218261
257.000000	0.219983
256.000000	0.221650
255.000000	0.223190
254.000000	0.224844
253.000000	0.226455
252.000000	0.228084
251.000000	0.229823
250.000000	0.231626
249.000000	0.233451
248.000000	0.235298
247.000000	0.237363
246.000000	0.239493
245.000000	0.241889
244.000000	0.244371
243.000000	0.247005
242.000000	0.249703
241.000000	0.252530
240.000000	0.255661
239.000000	0.258915
238.000000	0.262461
237.000000	0.266107
236.000000	0.269935
235.000000	0.273895
234.000000	0.278123
233.000000	0.282663
232.000000	0.287361
231.000000	0.292264
230.000000	0.297311
229.000000	0.302575
228.000000	0.307973
227.000000	0.313848
226.000000	0.320261
225.000000	0.327050
224.000000	0.334127
223.000000	0.342049
222.000000	0.350621
221.000000	0.359716
220.000000	0.369988
219.000000	0.381070
218.000000	0.393035
217.000000	0.406834
216.000000	0.422609
215.000000	0.440698
214.000000	0.461308
213.000000	0.485241
212.000000	0.512770
211.000000	0.544340
210.000000	0.580477
209.000000	0.622094
208.000000	0.669443
207.000000	0.724889
206.000000	0.790008
205.000000	0.867100
204.000000	0.958915
203.000000	1.073206
202.000000	1.215122
201.000000	1.399753
200.000000	1.639363
