PE UV       SUBTECH     SPECTRUM    ASCII       PEDS        4.00        
   -1
KI4-04A.Sample.Raw.asc
11/05/20
12:38:29.00
11/05/20
12:38:29.00
Hermanni Kaartokallio

200.000000
1
Lambda 650
650N8121101
PerkinElmer UV WinLab 6.0.2.0723 / 1.61.00 Lambda 650

0
0
2
0
0
UV/VIS
1
1
1
uv/vis/nir detector
0
0
0
0
Fix
 
0
0.24
0
0
0
 
 
 
0
 
0
319.2
0
Front
100
 
 
 
0
0
0
 
0
 
 
 
0
 
 
0
0
0
0
0
 
 
 
 
0
0
#HDR
-1
-1
#GR
nm
A
1.0
0.0
800.000000
-1.000000
601
8
1.581562
0.037686
#DATA
800.000000	0.047046
799.000000	0.047039
798.000000	0.047207
797.000000	0.047269
796.000000	0.047345
795.000000	0.047362
794.000000	0.047331
793.000000	0.047659
792.000000	0.047831
791.000000	0.047801
790.000000	0.048020
789.000000	0.048358
788.000000	0.048411
787.000000	0.048254
786.000000	0.048446
785.000000	0.048503
784.000000	0.048346
783.000000	0.048361
782.000000	0.048469
781.000000	0.048527
780.000000	0.048468
779.000000	0.048487
778.000000	0.048385
777.000000	0.048181
776.000000	0.048056
775.000000	0.048246
774.000000	0.048190
773.000000	0.048041
772.000000	0.047936
771.000000	0.047973
770.000000	0.047940
769.000000	0.047806
768.000000	0.047914
767.000000	0.047815
766.000000	0.047815
765.000000	0.048006
764.000000	0.047933
763.000000	0.048060
762.000000	0.048110
761.000000	0.048031
760.000000	0.048188
759.000000	0.048159
758.000000	0.048176
757.000000	0.048299
756.000000	0.048370
755.000000	0.048274
754.000000	0.048152
753.000000	0.048369
752.000000	0.048294
751.000000	0.048231
750.000000	0.048462
749.000000	0.048444
748.000000	0.048309
747.000000	0.048223
746.000000	0.048286
745.000000	0.048356
744.000000	0.048439
743.000000	0.048313
742.000000	0.048335
741.000000	0.048309
740.000000	0.048160
739.000000	0.047983
738.000000	0.047888
737.000000	0.047622
736.000000	0.047362
735.000000	0.047013
734.000000	0.046586
733.000000	0.046172
732.000000	0.045770
731.000000	0.045308
730.000000	0.044811
729.000000	0.044373
728.000000	0.043920
727.000000	0.043635
726.000000	0.043432
725.000000	0.043154
724.000000	0.042832
723.000000	0.042508
722.000000	0.042250
721.000000	0.041996
720.000000	0.041766
719.000000	0.041456
718.000000	0.041095
717.000000	0.040728
716.000000	0.040364
715.000000	0.040148
714.000000	0.039939
713.000000	0.039567
712.000000	0.039267
711.000000	0.039020
710.000000	0.038787
709.000000	0.038668
708.000000	0.038502
707.000000	0.038238
706.000000	0.038023
705.000000	0.037897
704.000000	0.037939
703.000000	0.037938
702.000000	0.037999
701.000000	0.037984
700.000000	0.037896
699.000000	0.037938
698.000000	0.038034
697.000000	0.038033
696.000000	0.038068
695.000000	0.038052
694.000000	0.037965
693.000000	0.038044
692.000000	0.038070
691.000000	0.038129
690.000000	0.038160
689.000000	0.038018
688.000000	0.037989
687.000000	0.038082
686.000000	0.037983
685.000000	0.037868
684.000000	0.037882
683.000000	0.037861
682.000000	0.037869
681.000000	0.037879
680.000000	0.037806
679.000000	0.037791
678.000000	0.037752
677.000000	0.037686
676.000000	0.037799
675.000000	0.037853
674.000000	0.037798
673.000000	0.037872
672.000000	0.037957
671.000000	0.037898
670.000000	0.037995
669.000000	0.038246
668.000000	0.038286
667.000000	0.038323
666.000000	0.038342
665.000000	0.038350
664.000000	0.038513
663.000000	0.038651
662.000000	0.038648
661.000000	0.038730
660.000000	0.038782
659.000000	0.038825
658.000000	0.039004
657.000000	0.039041
656.000000	0.038954
655.000000	0.039007
654.000000	0.039056
653.000000	0.039074
652.000000	0.039086
651.000000	0.039199
650.000000	0.039089
649.000000	0.039001
648.000000	0.038954
647.000000	0.038976
646.000000	0.038986
645.000000	0.038748
644.000000	0.038722
643.000000	0.038668
642.000000	0.038545
641.000000	0.038451
640.000000	0.038480
639.000000	0.038433
638.000000	0.038273
637.000000	0.038262
636.000000	0.038242
635.000000	0.038071
634.000000	0.038190
633.000000	0.038301
632.000000	0.038210
631.000000	0.038292
630.000000	0.038384
629.000000	0.038467
628.000000	0.038506
627.000000	0.038570
626.000000	0.038624
625.000000	0.038634
624.000000	0.038672
623.000000	0.038709
622.000000	0.038904
621.000000	0.038960
620.000000	0.038872
619.000000	0.038970
618.000000	0.039163
617.000000	0.039151
616.000000	0.039218
615.000000	0.039424
614.000000	0.039395
613.000000	0.039390
612.000000	0.039377
611.000000	0.039452
610.000000	0.039546
609.000000	0.039551
608.000000	0.039569
607.000000	0.039585
606.000000	0.039463
605.000000	0.039538
604.000000	0.039728
603.000000	0.039698
602.000000	0.039565
601.000000	0.039729
600.000000	0.039655
599.000000	0.039592
598.000000	0.039664
597.000000	0.039705
596.000000	0.039700
595.000000	0.039654
594.000000	0.039682
593.000000	0.039761
592.000000	0.039867
591.000000	0.039784
590.000000	0.039958
589.000000	0.039952
588.000000	0.039914
587.000000	0.039862
586.000000	0.039989
585.000000	0.040084
584.000000	0.040054
583.000000	0.039958
582.000000	0.040089
581.000000	0.040095
580.000000	0.040074
579.000000	0.040207
578.000000	0.040256
577.000000	0.040037
576.000000	0.040112
575.000000	0.040198
574.000000	0.040224
573.000000	0.040260
572.000000	0.040150
571.000000	0.040130
570.000000	0.040077
569.000000	0.040012
568.000000	0.040038
567.000000	0.040090
566.000000	0.039935
565.000000	0.039806
564.000000	0.039815
563.000000	0.039776
562.000000	0.039603
561.000000	0.039679
560.000000	0.039714
559.000000	0.039551
558.000000	0.039752
557.000000	0.039549
556.000000	0.039440
555.000000	0.039407
554.000000	0.039463
553.000000	0.039393
552.000000	0.039364
551.000000	0.039231
550.000000	0.039253
549.000000	0.039212
548.000000	0.039209
547.000000	0.039238
546.000000	0.039185
545.000000	0.039152
544.000000	0.039105
543.000000	0.039211
542.000000	0.039276
541.000000	0.039297
540.000000	0.039281
539.000000	0.039417
538.000000	0.039352
537.000000	0.039412
536.000000	0.039582
535.000000	0.039616
534.000000	0.039647
533.000000	0.039737
532.000000	0.039832
531.000000	0.039861
530.000000	0.039992
529.000000	0.040073
528.000000	0.040059
527.000000	0.040102
526.000000	0.040158
525.000000	0.040356
524.000000	0.040478
523.000000	0.040422
522.000000	0.040510
521.000000	0.040579
520.000000	0.040643
519.000000	0.040733
518.000000	0.040864
517.000000	0.040903
516.000000	0.040931
515.000000	0.041014
514.000000	0.041129
513.000000	0.041238
512.000000	0.041332
511.000000	0.041434
510.000000	0.041512
509.000000	0.041483
508.000000	0.041533
507.000000	0.041737
506.000000	0.041915
505.000000	0.041951
504.000000	0.042015
503.000000	0.042083
502.000000	0.042147
501.000000	0.042274
500.000000	0.042469
499.000000	0.042526
498.000000	0.042581
497.000000	0.042713
496.000000	0.042839
495.000000	0.042952
494.000000	0.043088
493.000000	0.043189
492.000000	0.043268
491.000000	0.043342
490.000000	0.043437
489.000000	0.043615
488.000000	0.043718
487.000000	0.043723
486.000000	0.043800
485.000000	0.043903
484.000000	0.044001
483.000000	0.044045
482.000000	0.044113
481.000000	0.044146
480.000000	0.044178
479.000000	0.044268
478.000000	0.044344
477.000000	0.044468
476.000000	0.044592
475.000000	0.044604
474.000000	0.044643
473.000000	0.044707
472.000000	0.044794
471.000000	0.044898
470.000000	0.045028
469.000000	0.045025
468.000000	0.045086
467.000000	0.045199
466.000000	0.045257
465.000000	0.045316
464.000000	0.045491
463.000000	0.045645
462.000000	0.045602
461.000000	0.045637
460.000000	0.045689
459.000000	0.045750
458.000000	0.045907
457.000000	0.045935
456.000000	0.045967
455.000000	0.046086
454.000000	0.046119
453.000000	0.046284
452.000000	0.046429
451.000000	0.046438
450.000000	0.046564
449.000000	0.046653
448.000000	0.046793
447.000000	0.047066
446.000000	0.047211
445.000000	0.047219
444.000000	0.047293
443.000000	0.047499
442.000000	0.047578
441.000000	0.047822
440.000000	0.048012
439.000000	0.048062
438.000000	0.048166
437.000000	0.048348
436.000000	0.048517
435.000000	0.048697
434.000000	0.048910
433.000000	0.049134
432.000000	0.049285
431.000000	0.049507
430.000000	0.049733
429.000000	0.049994
428.000000	0.050142
427.000000	0.050276
426.000000	0.050453
425.000000	0.050682
424.000000	0.050935
423.000000	0.051204
422.000000	0.051421
421.000000	0.051617
420.000000	0.051768
419.000000	0.052072
418.000000	0.052331
417.000000	0.052558
416.000000	0.052869
415.000000	0.053042
414.000000	0.053384
413.000000	0.053608
412.000000	0.053853
411.000000	0.054244
410.000000	0.054554
409.000000	0.054767
408.000000	0.055026
407.000000	0.055348
406.000000	0.055689
405.000000	0.056031
404.000000	0.056348
403.000000	0.056676
402.000000	0.056945
401.000000	0.057279
400.000000	0.057594
399.000000	0.057987
398.000000	0.058428
397.000000	0.058718
396.000000	0.059149
395.000000	0.059548
394.000000	0.059921
393.000000	0.060448
392.000000	0.060828
391.000000	0.061180
390.000000	0.061598
389.000000	0.062190
388.000000	0.062543
387.000000	0.063000
386.000000	0.063522
385.000000	0.063925
384.000000	0.064479
383.000000	0.064956
382.000000	0.065450
381.000000	0.066068
380.000000	0.066497
379.000000	0.067090
378.000000	0.067590
377.000000	0.068049
376.000000	0.068751
375.000000	0.069317
374.000000	0.069915
373.000000	0.070396
372.000000	0.071062
371.000000	0.071850
370.000000	0.072371
369.000000	0.072818
368.000000	0.073547
367.000000	0.074262
366.000000	0.074837
365.000000	0.075618
364.000000	0.076359
363.000000	0.076845
362.000000	0.077405
361.000000	0.078104
360.000000	0.078974
359.000000	0.079639
358.000000	0.080279
357.000000	0.081036
356.000000	0.081634
355.000000	0.082348
354.000000	0.083212
353.000000	0.084142
352.000000	0.084786
351.000000	0.085346
350.000000	0.086209
349.000000	0.086888
348.000000	0.087632
347.000000	0.088495
346.000000	0.089305
345.000000	0.090068
344.000000	0.090728
343.000000	0.091648
342.000000	0.092559
341.000000	0.093401
340.000000	0.094205
339.000000	0.095102
338.000000	0.095876
337.000000	0.096820
336.000000	0.097742
335.000000	0.098758
334.000000	0.099623
333.000000	0.100527
332.000000	0.101559
331.000000	0.102632
330.000000	0.103492
329.000000	0.104609
328.000000	0.105644
327.000000	0.106726
326.000000	0.107772
325.000000	0.108836
324.000000	0.109962
323.000000	0.111108
322.000000	0.112186
321.000000	0.113509
320.000000	0.114662
319.000000	0.115832
318.000000	0.117613
317.000000	0.119869
316.000000	0.121191
315.000000	0.122590
314.000000	0.123778
313.000000	0.125134
312.000000	0.126595
311.000000	0.127994
310.000000	0.129459
309.000000	0.130894
308.000000	0.132450
307.000000	0.133974
306.000000	0.135363
305.000000	0.136938
304.000000	0.138579
303.000000	0.140038
302.000000	0.141619
301.000000	0.143379
300.000000	0.145119
299.000000	0.146758
298.000000	0.148541
297.000000	0.150422
296.000000	0.152215
295.000000	0.153974
294.000000	0.155917
293.000000	0.157951
292.000000	0.159882
291.000000	0.161968
290.000000	0.164148
289.000000	0.166137
288.000000	0.168149
287.000000	0.170343
286.000000	0.172647
285.000000	0.174706
284.000000	0.176765
283.000000	0.179046
282.000000	0.181243
281.000000	0.183392
280.000000	0.185726
279.000000	0.188016
278.000000	0.190154
277.000000	0.192343
276.000000	0.194626
275.000000	0.196968
274.000000	0.199228
273.000000	0.201501
272.000000	0.203912
271.000000	0.206226
270.000000	0.208393
269.000000	0.210644
268.000000	0.212865
267.000000	0.215036
266.000000	0.217291
265.000000	0.219470
264.000000	0.221468
263.000000	0.223446
262.000000	0.225447
261.000000	0.227520
260.000000	0.229286
259.000000	0.230877
258.000000	0.232693
257.000000	0.234559
256.000000	0.236280
255.000000	0.237883
254.000000	0.239653
253.000000	0.241388
252.000000	0.243086
251.000000	0.245046
250.000000	0.247057
249.000000	0.248899
248.000000	0.250879
247.000000	0.253138
246.000000	0.255461
245.000000	0.257880
244.000000	0.260328
243.000000	0.263239
242.000000	0.266167
241.000000	0.269118
240.000000	0.272460
239.000000	0.276079
238.000000	0.279512
237.000000	0.283289
236.000000	0.287400
235.000000	0.291681
234.000000	0.295925
233.000000	0.300633
232.000000	0.305374
231.000000	0.310369
230.000000	0.315725
229.000000	0.321268
228.000000	0.327246
227.000000	0.333491
226.000000	0.339778
225.000000	0.346683
224.000000	0.353995
223.000000	0.361847
222.000000	0.370486
221.000000	0.379937
220.000000	0.389716
219.000000	0.400493
218.000000	0.412671
217.000000	0.426383
216.000000	0.441882
215.000000	0.459431
214.000000	0.479233
213.000000	0.502161
212.000000	0.528554
211.000000	0.558447
210.000000	0.592857
209.000000	0.631945
208.000000	0.675953
207.000000	0.727870
206.000000	0.788559
205.000000	0.860017
204.000000	0.946286
203.000000	1.052558
202.000000	1.185207
201.000000	1.356815
200.000000	1.581562
