PE UV       SUBTECH     SPECTRUM    ASCII       PEDS        4.00        	
-1	
KY013M040510_1CM_CELL.Sample.Raw.asc	
10.10.2015	
15:05:29.00	
10.10.2015	
15:05:29.00	
Hermanni Kaartokallio	
	
200.000000	
1	
Lambda 650	
650N8121101	
PerkinElmer UV WinLab 6.0.2.0723 / 1.61.00 Lambda 650	
	
0	
0	
2	
0	
0	
UV/VIS	
1	
1	
1	
uv/vis/nir detector	
0	
0	
0	
0	
Fix	
 	
0	
0.24	
0	
0	
0	
 	
 	
 	
0	
 	
0	
319.2	
0	
Front	
100	
 	
 	
 	
0	
0	
0	
 	
0	
 	
 	
 	
0	
 	
 	
0	
0	
0	
0	
0	
 	
 	
 	
 	
0	
0	
#HDR	
-1	
-1	
#GR	
nm	
A	
1.0	
0.0	
800.000000	
-1.000000	
601	
8	
2.334358	
0.032687	
#DATA	
800.000000	0.043453
799.000000	0.043563
798.000000	0.043845
797.000000	0.044050
796.000000	0.044045
795.000000	0.043927
794.000000	0.044107
793.000000	0.044254
792.000000	0.044301
791.000000	0.044220
790.000000	0.044441
789.000000	0.044205
788.000000	0.044258
787.000000	0.044394
786.000000	0.044381
785.000000	0.044563
784.000000	0.044628
783.000000	0.044634
782.000000	0.044694
781.000000	0.044638
780.000000	0.044758
779.000000	0.044895
778.000000	0.044848
777.000000	0.044583
776.000000	0.044699
775.000000	0.044725
774.000000	0.044629
773.000000	0.044463
772.000000	0.044606
771.000000	0.044412
770.000000	0.044241
769.000000	0.044224
768.000000	0.044314
767.000000	0.044140
766.000000	0.044069
765.000000	0.044000
764.000000	0.044024
763.000000	0.043875
762.000000	0.043853
761.000000	0.043835
760.000000	0.043773
759.000000	0.043675
758.000000	0.043791
757.000000	0.043833
756.000000	0.043945
755.000000	0.044002
754.000000	0.044143
753.000000	0.044176
752.000000	0.044248
751.000000	0.044302
750.000000	0.044582
749.000000	0.044587
748.000000	0.044638
747.000000	0.044639
746.000000	0.044730
745.000000	0.044779
744.000000	0.044944
743.000000	0.044883
742.000000	0.044934
741.000000	0.044656
740.000000	0.044600
739.000000	0.044632
738.000000	0.044450
737.000000	0.044158
736.000000	0.043834
735.000000	0.043379
734.000000	0.042954
733.000000	0.042499
732.000000	0.042074
731.000000	0.041405
730.000000	0.040762
729.000000	0.040154
728.000000	0.039842
727.000000	0.039472
726.000000	0.039132
725.000000	0.038851
724.000000	0.038592
723.000000	0.038191
722.000000	0.037897
721.000000	0.037705
720.000000	0.037465
719.000000	0.037147
718.000000	0.037000
717.000000	0.036725
716.000000	0.036409
715.000000	0.036122
714.000000	0.035852
713.000000	0.035676
712.000000	0.035360
711.000000	0.034992
710.000000	0.034787
709.000000	0.034571
708.000000	0.034374
707.000000	0.034238
706.000000	0.034070
705.000000	0.033797
704.000000	0.033547
703.000000	0.033516
702.000000	0.033492
701.000000	0.033311
700.000000	0.033131
699.000000	0.033004
698.000000	0.032870
697.000000	0.032782
696.000000	0.032824
695.000000	0.032873
694.000000	0.032778
693.000000	0.032687
692.000000	0.032791
691.000000	0.032955
690.000000	0.032911
689.000000	0.033001
688.000000	0.033209
687.000000	0.033211
686.000000	0.033391
685.000000	0.033471
684.000000	0.033490
683.000000	0.033583
682.000000	0.033775
681.000000	0.033948
680.000000	0.034087
679.000000	0.034139
678.000000	0.034163
677.000000	0.034298
676.000000	0.034486
675.000000	0.034512
674.000000	0.034620
673.000000	0.034510
672.000000	0.034499
671.000000	0.034561
670.000000	0.034673
669.000000	0.034656
668.000000	0.034711
667.000000	0.034603
666.000000	0.034518
665.000000	0.034482
664.000000	0.034527
663.000000	0.034531
662.000000	0.034548
661.000000	0.034433
660.000000	0.034363
659.000000	0.034302
658.000000	0.034331
657.000000	0.034278
656.000000	0.034348
655.000000	0.034252
654.000000	0.034184
653.000000	0.034148
652.000000	0.034236
651.000000	0.034162
650.000000	0.034256
649.000000	0.034243
648.000000	0.034232
647.000000	0.034187
646.000000	0.034216
645.000000	0.034274
644.000000	0.034361
643.000000	0.034255
642.000000	0.034319
641.000000	0.034284
640.000000	0.034375
639.000000	0.034326
638.000000	0.034394
637.000000	0.034336
636.000000	0.034332
635.000000	0.034373
634.000000	0.034485
633.000000	0.034522
632.000000	0.034554
631.000000	0.034465
630.000000	0.034495
629.000000	0.034575
628.000000	0.034726
627.000000	0.034728
626.000000	0.034790
625.000000	0.034628
624.000000	0.034789
623.000000	0.034886
622.000000	0.035056
621.000000	0.035101
620.000000	0.035219
619.000000	0.035154
618.000000	0.035254
617.000000	0.035351
616.000000	0.035470
615.000000	0.035565
614.000000	0.035581
613.000000	0.035538
612.000000	0.035597
611.000000	0.035665
610.000000	0.035764
609.000000	0.035751
608.000000	0.035910
607.000000	0.035807
606.000000	0.035796
605.000000	0.035823
604.000000	0.036037
603.000000	0.035949
602.000000	0.036095
601.000000	0.035877
600.000000	0.035818
599.000000	0.035800
598.000000	0.035704
597.000000	0.035805
596.000000	0.035776
595.000000	0.035713
594.000000	0.035595
593.000000	0.035551
592.000000	0.035451
591.000000	0.035535
590.000000	0.035473
589.000000	0.035570
588.000000	0.035391
587.000000	0.035368
586.000000	0.035390
585.000000	0.035488
584.000000	0.035463
583.000000	0.035363
582.000000	0.035344
581.000000	0.035327
580.000000	0.035380
579.000000	0.035479
578.000000	0.035448
577.000000	0.035566
576.000000	0.035470
575.000000	0.035438
574.000000	0.035484
573.000000	0.035668
572.000000	0.035694
571.000000	0.035789
570.000000	0.035708
569.000000	0.035739
568.000000	0.035917
567.000000	0.036077
566.000000	0.036271
565.000000	0.036312
564.000000	0.036264
563.000000	0.036328
562.000000	0.036407
561.000000	0.036408
560.000000	0.036583
559.000000	0.036670
558.000000	0.036776
557.000000	0.036692
556.000000	0.036801
555.000000	0.036909
554.000000	0.037089
553.000000	0.037174
552.000000	0.037240
551.000000	0.037215
550.000000	0.037280
549.000000	0.037428
548.000000	0.037511
547.000000	0.037537
546.000000	0.037634
545.000000	0.037607
544.000000	0.037667
543.000000	0.037735
542.000000	0.037913
541.000000	0.038020
540.000000	0.038032
539.000000	0.038065
538.000000	0.038178
537.000000	0.038260
536.000000	0.038410
535.000000	0.038533
534.000000	0.038602
533.000000	0.038585
532.000000	0.038597
531.000000	0.038738
530.000000	0.038826
529.000000	0.039002
528.000000	0.039069
527.000000	0.039000
526.000000	0.039071
525.000000	0.039163
524.000000	0.039281
523.000000	0.039301
522.000000	0.039316
521.000000	0.039362
520.000000	0.039472
519.000000	0.039526
518.000000	0.039582
517.000000	0.039650
516.000000	0.039721
515.000000	0.039672
514.000000	0.039687
513.000000	0.039749
512.000000	0.039877
511.000000	0.039907
510.000000	0.039837
509.000000	0.039789
508.000000	0.039793
507.000000	0.039863
506.000000	0.040009
505.000000	0.040021
504.000000	0.039966
503.000000	0.039891
502.000000	0.039962
501.000000	0.040029
500.000000	0.040012
499.000000	0.040101
498.000000	0.040113
497.000000	0.040064
496.000000	0.040061
495.000000	0.040140
494.000000	0.040256
493.000000	0.040339
492.000000	0.040352
491.000000	0.040362
490.000000	0.040433
489.000000	0.040505
488.000000	0.040681
487.000000	0.040852
486.000000	0.040813
485.000000	0.040849
484.000000	0.041042
483.000000	0.041207
482.000000	0.041303
481.000000	0.041389
480.000000	0.041476
479.000000	0.041562
478.000000	0.041668
477.000000	0.041865
476.000000	0.042073
475.000000	0.042169
474.000000	0.042211
473.000000	0.042388
472.000000	0.042597
471.000000	0.042766
470.000000	0.042922
469.000000	0.043161
468.000000	0.043249
467.000000	0.043333
466.000000	0.043519
465.000000	0.043848
464.000000	0.044012
463.000000	0.044165
462.000000	0.044272
461.000000	0.044425
460.000000	0.044577
459.000000	0.044916
458.000000	0.045185
457.000000	0.045357
456.000000	0.045431
455.000000	0.045713
454.000000	0.045925
453.000000	0.046192
452.000000	0.046363
451.000000	0.046700
450.000000	0.046888
449.000000	0.047036
448.000000	0.047294
447.000000	0.047698
446.000000	0.047882
445.000000	0.048142
444.000000	0.048419
443.000000	0.048612
442.000000	0.048918
441.000000	0.049248
440.000000	0.049560
439.000000	0.050010
438.000000	0.050004
437.000000	0.050237
436.000000	0.050648
435.000000	0.051066
434.000000	0.051315
433.000000	0.051645
432.000000	0.051959
431.000000	0.052157
430.000000	0.052427
429.000000	0.052970
428.000000	0.053342
427.000000	0.053580
426.000000	0.053913
425.000000	0.054290
424.000000	0.054658
423.000000	0.055164
422.000000	0.055469
421.000000	0.055974
420.000000	0.056154
419.000000	0.056537
418.000000	0.056954
417.000000	0.057472
416.000000	0.057816
415.000000	0.058248
414.000000	0.058617
413.000000	0.059015
412.000000	0.059461
411.000000	0.060071
410.000000	0.060538
409.000000	0.061060
408.000000	0.061335
407.000000	0.061946
406.000000	0.062347
405.000000	0.062907
404.000000	0.063384
403.000000	0.064185
402.000000	0.064405
401.000000	0.064909
400.000000	0.065552
399.000000	0.066386
398.000000	0.066758
397.000000	0.067485
396.000000	0.068081
395.000000	0.068653
394.000000	0.069093
393.000000	0.070015
392.000000	0.070746
391.000000	0.071405
390.000000	0.071858
389.000000	0.072674
388.000000	0.073474
387.000000	0.074170
386.000000	0.074975
385.000000	0.075848
384.000000	0.076464
383.000000	0.077196
382.000000	0.078037
381.000000	0.079139
380.000000	0.079957
379.000000	0.080738
378.000000	0.081617
377.000000	0.082080
376.000000	0.083085
375.000000	0.084127
374.000000	0.085222
373.000000	0.086094
372.000000	0.087108
371.000000	0.088422
370.000000	0.089294
369.000000	0.090518
368.000000	0.091490
367.000000	0.092728
366.000000	0.093973
365.000000	0.095092
364.000000	0.096398
363.000000	0.097578
362.000000	0.098707
361.000000	0.099897
360.000000	0.101334
359.000000	0.102699
358.000000	0.103914
357.000000	0.105279
356.000000	0.106663
355.000000	0.107971
354.000000	0.109344
353.000000	0.110953
352.000000	0.112466
351.000000	0.113909
350.000000	0.115168
349.000000	0.116687
348.000000	0.118335
347.000000	0.119866
346.000000	0.121425
345.000000	0.123068
344.000000	0.124474
343.000000	0.126150
342.000000	0.127967
341.000000	0.129835
340.000000	0.131451
339.000000	0.133169
338.000000	0.134965
337.000000	0.136683
336.000000	0.138517
335.000000	0.140478
334.000000	0.142371
333.000000	0.144244
332.000000	0.146071
331.000000	0.148125
330.000000	0.150062
329.000000	0.151952
328.000000	0.153978
327.000000	0.156195
326.000000	0.158171
325.000000	0.160200
324.000000	0.162377
323.000000	0.164618
322.000000	0.166684
321.000000	0.168775
320.000000	0.171064
319.000000	0.173289
318.000000	0.175330
317.000000	0.177387
316.000000	0.179521
315.000000	0.181796
314.000000	0.184319
313.000000	0.186740
312.000000	0.189060
311.000000	0.191559
310.000000	0.194116
309.000000	0.196581
308.000000	0.199056
307.000000	0.201604
306.000000	0.204169
305.000000	0.206727
304.000000	0.209450
303.000000	0.212178
302.000000	0.214706
301.000000	0.217280
300.000000	0.220186
299.000000	0.223215
298.000000	0.226117
297.000000	0.229125
296.000000	0.232208
295.000000	0.235194
294.000000	0.238169
293.000000	0.241461
292.000000	0.244890
291.000000	0.248129
290.000000	0.251362
289.000000	0.254812
288.000000	0.258276
287.000000	0.261812
286.000000	0.265458
285.000000	0.269214
284.000000	0.272832
283.000000	0.276315
282.000000	0.280112
281.000000	0.284079
280.000000	0.287787
279.000000	0.291489
278.000000	0.295368
277.000000	0.299211
276.000000	0.303063
275.000000	0.307058
274.000000	0.311127
273.000000	0.315129
272.000000	0.318984
271.000000	0.322976
270.000000	0.327003
269.000000	0.330874
268.000000	0.334726
267.000000	0.338591
266.000000	0.342340
265.000000	0.345937
264.000000	0.349603
263.000000	0.353345
262.000000	0.356796
261.000000	0.360221
260.000000	0.363502
259.000000	0.366872
258.000000	0.370081
257.000000	0.373329
256.000000	0.376606
255.000000	0.379916
254.000000	0.383001
253.000000	0.386426
252.000000	0.389929
251.000000	0.393517
250.000000	0.397040
249.000000	0.400942
248.000000	0.405168
247.000000	0.409498
246.000000	0.414169
245.000000	0.419608
244.000000	0.425236
243.000000	0.431506
242.000000	0.438412
241.000000	0.446093
240.000000	0.454537
239.000000	0.463899
238.000000	0.474541
237.000000	0.486437
236.000000	0.499548
235.000000	0.514608
234.000000	0.532056
233.000000	0.551497
232.000000	0.573610
231.000000	0.598840
230.000000	0.627276
229.000000	0.658726
228.000000	0.694328
227.000000	0.734197
226.000000	0.778883
225.000000	0.828258
224.000000	0.882768
223.000000	0.942394
222.000000	1.006835
221.000000	1.075411
220.000000	1.147964
219.000000	1.224634
218.000000	1.303845
217.000000	1.385864
216.000000	1.470088
215.000000	1.554776
214.000000	1.638895
213.000000	1.721869
212.000000	1.802573
211.000000	1.879708
210.000000	1.950469
209.000000	2.014938
208.000000	2.074514
207.000000	2.129204
206.000000	2.177638
205.000000	2.220258
204.000000	2.254831
203.000000	2.280493
202.000000	2.303683
201.000000	2.320216
200.000000	2.334358
