PE UV       SUBTECH     SPECTRUM    ASCII       PEDS        4.00        	
-1	
KY00040510_1CM_CELL.Sample.Raw.asc	
10.10.2015	
14:52:30.00	
10.10.2015	
14:52:30.00	
Hermanni Kaartokallio	
	
200.000000	
1	
Lambda 650	
650N8121101	
PerkinElmer UV WinLab 6.0.2.0723 / 1.61.00 Lambda 650	
	
0	
0	
2	
0	
0	
UV/VIS	
1	
1	
1	
uv/vis/nir detector	
0	
0	
0	
0	
Fix	
 	
0	
0.24	
0	
0	
0	
 	
 	
 	
0	
 	
0	
319.2	
0	
Front	
100	
 	
 	
 	
0	
0	
0	
 	
0	
 	
 	
 	
0	
 	
 	
0	
0	
0	
0	
0	
 	
 	
 	
 	
0	
0	
#HDR	
-1	
-1	
#GR	
nm	
A	
1.0	
0.0	
800.000000	
-1.000000	
601	
8	
2.244732	
0.033918	
#DATA	
800.000000	0.043793
799.000000	0.043856
798.000000	0.044305
797.000000	0.044247
796.000000	0.044386
795.000000	0.044478
794.000000	0.044563
793.000000	0.044555
792.000000	0.044544
791.000000	0.044520
790.000000	0.044625
789.000000	0.044529
788.000000	0.044574
787.000000	0.044731
786.000000	0.044807
785.000000	0.044717
784.000000	0.045020
783.000000	0.045099
782.000000	0.045069
781.000000	0.045096
780.000000	0.045247
779.000000	0.045122
778.000000	0.045109
777.000000	0.045053
776.000000	0.045142
775.000000	0.045141
774.000000	0.045041
773.000000	0.044819
772.000000	0.044892
771.000000	0.044767
770.000000	0.044698
769.000000	0.044639
768.000000	0.044737
767.000000	0.044285
766.000000	0.044389
765.000000	0.044488
764.000000	0.044421
763.000000	0.044318
762.000000	0.044391
761.000000	0.044219
760.000000	0.044146
759.000000	0.044224
758.000000	0.044308
757.000000	0.044347
756.000000	0.044446
755.000000	0.044411
754.000000	0.044562
753.000000	0.044624
752.000000	0.044680
751.000000	0.044841
750.000000	0.045092
749.000000	0.044914
748.000000	0.045110
747.000000	0.045265
746.000000	0.045238
745.000000	0.045271
744.000000	0.045477
743.000000	0.045318
742.000000	0.045309
741.000000	0.045245
740.000000	0.045308
739.000000	0.045240
738.000000	0.044919
737.000000	0.044584
736.000000	0.044457
735.000000	0.043992
734.000000	0.043505
733.000000	0.043130
732.000000	0.042603
731.000000	0.041772
730.000000	0.041298
729.000000	0.040773
728.000000	0.040344
727.000000	0.039980
726.000000	0.039618
725.000000	0.039252
724.000000	0.038973
723.000000	0.038697
722.000000	0.038495
721.000000	0.038306
720.000000	0.037954
719.000000	0.037622
718.000000	0.037509
717.000000	0.037229
716.000000	0.036928
715.000000	0.036732
714.000000	0.036498
713.000000	0.036172
712.000000	0.035968
711.000000	0.035761
710.000000	0.035553
709.000000	0.035388
708.000000	0.035314
707.000000	0.035147
706.000000	0.034871
705.000000	0.034633
704.000000	0.034567
703.000000	0.034456
702.000000	0.034411
701.000000	0.034321
700.000000	0.034223
699.000000	0.034199
698.000000	0.033975
697.000000	0.033985
696.000000	0.034069
695.000000	0.033930
694.000000	0.033918
693.000000	0.034015
692.000000	0.034139
691.000000	0.034183
690.000000	0.034169
689.000000	0.034283
688.000000	0.034346
687.000000	0.034315
686.000000	0.034369
685.000000	0.034382
684.000000	0.034369
683.000000	0.034522
682.000000	0.034756
681.000000	0.034797
680.000000	0.034910
679.000000	0.035060
678.000000	0.035117
677.000000	0.035204
676.000000	0.035440
675.000000	0.035437
674.000000	0.035445
673.000000	0.035439
672.000000	0.035551
671.000000	0.035630
670.000000	0.035685
669.000000	0.035684
668.000000	0.035769
667.000000	0.035644
666.000000	0.035513
665.000000	0.035497
664.000000	0.035602
663.000000	0.035446
662.000000	0.035368
661.000000	0.035354
660.000000	0.035412
659.000000	0.035403
658.000000	0.035407
657.000000	0.035227
656.000000	0.035189
655.000000	0.035145
654.000000	0.035165
653.000000	0.035194
652.000000	0.035269
651.000000	0.035102
650.000000	0.035199
649.000000	0.035309
648.000000	0.035205
647.000000	0.035166
646.000000	0.035340
645.000000	0.035215
644.000000	0.035228
643.000000	0.035309
642.000000	0.035413
641.000000	0.035333
640.000000	0.035428
639.000000	0.035378
638.000000	0.035497
637.000000	0.035439
636.000000	0.035382
635.000000	0.035619
634.000000	0.035623
633.000000	0.035514
632.000000	0.035602
631.000000	0.035654
630.000000	0.035668
629.000000	0.035716
628.000000	0.035965
627.000000	0.035880
626.000000	0.035895
625.000000	0.035912
624.000000	0.036060
623.000000	0.036177
622.000000	0.036277
621.000000	0.036205
620.000000	0.036477
619.000000	0.036423
618.000000	0.036439
617.000000	0.036624
616.000000	0.036866
615.000000	0.036684
614.000000	0.036770
613.000000	0.036947
612.000000	0.036934
611.000000	0.036985
610.000000	0.037203
609.000000	0.037096
608.000000	0.037288
607.000000	0.037206
606.000000	0.037215
605.000000	0.037359
604.000000	0.037339
603.000000	0.037208
602.000000	0.037404
601.000000	0.037355
600.000000	0.037307
599.000000	0.037346
598.000000	0.037302
597.000000	0.037395
596.000000	0.037120
595.000000	0.037280
594.000000	0.037280
593.000000	0.037115
592.000000	0.037039
591.000000	0.037193
590.000000	0.036973
589.000000	0.037107
588.000000	0.037031
587.000000	0.037090
586.000000	0.037049
585.000000	0.037075
584.000000	0.036985
583.000000	0.037135
582.000000	0.037009
581.000000	0.036964
580.000000	0.037093
579.000000	0.037133
578.000000	0.036854
577.000000	0.037208
576.000000	0.037263
575.000000	0.037171
574.000000	0.037232
573.000000	0.037390
572.000000	0.037344
571.000000	0.037453
570.000000	0.037524
569.000000	0.037736
568.000000	0.037783
567.000000	0.037909
566.000000	0.038025
565.000000	0.038094
564.000000	0.038143
563.000000	0.038193
562.000000	0.038397
561.000000	0.038338
560.000000	0.038485
559.000000	0.038545
558.000000	0.038751
557.000000	0.038711
556.000000	0.038830
555.000000	0.039010
554.000000	0.039086
553.000000	0.038985
552.000000	0.039249
551.000000	0.039356
550.000000	0.039311
549.000000	0.039470
548.000000	0.039647
547.000000	0.039572
546.000000	0.039681
545.000000	0.039771
544.000000	0.039915
543.000000	0.040012
542.000000	0.040075
541.000000	0.040170
540.000000	0.040336
539.000000	0.040372
538.000000	0.040451
537.000000	0.040641
536.000000	0.040727
535.000000	0.040684
534.000000	0.040948
533.000000	0.041087
532.000000	0.041087
531.000000	0.041210
530.000000	0.041289
529.000000	0.041392
528.000000	0.041501
527.000000	0.041510
526.000000	0.041711
525.000000	0.041822
524.000000	0.041792
523.000000	0.041822
522.000000	0.042029
521.000000	0.042123
520.000000	0.042148
519.000000	0.042298
518.000000	0.042365
517.000000	0.042295
516.000000	0.042476
515.000000	0.042539
514.000000	0.042562
513.000000	0.042617
512.000000	0.042703
511.000000	0.042773
510.000000	0.042808
509.000000	0.042780
508.000000	0.042868
507.000000	0.042969
506.000000	0.042954
505.000000	0.043031
504.000000	0.043218
503.000000	0.043115
502.000000	0.043105
501.000000	0.043246
500.000000	0.043209
499.000000	0.043247
498.000000	0.043378
497.000000	0.043409
496.000000	0.043445
495.000000	0.043482
494.000000	0.043555
493.000000	0.043657
492.000000	0.043776
491.000000	0.043825
490.000000	0.043937
489.000000	0.044116
488.000000	0.044172
487.000000	0.044261
486.000000	0.044417
485.000000	0.044523
484.000000	0.044636
483.000000	0.044880
482.000000	0.044990
481.000000	0.045053
480.000000	0.045210
479.000000	0.045385
478.000000	0.045585
477.000000	0.045787
476.000000	0.045919
475.000000	0.046169
474.000000	0.046381
473.000000	0.046505
472.000000	0.046754
471.000000	0.047078
470.000000	0.047074
469.000000	0.047330
468.000000	0.047592
467.000000	0.047770
466.000000	0.047937
465.000000	0.048265
464.000000	0.048416
463.000000	0.048664
462.000000	0.048868
461.000000	0.049124
460.000000	0.049390
459.000000	0.049696
458.000000	0.049766
457.000000	0.050198
456.000000	0.050436
455.000000	0.050621
454.000000	0.050899
453.000000	0.051303
452.000000	0.051462
451.000000	0.051791
450.000000	0.052134
449.000000	0.052440
448.000000	0.052682
447.000000	0.053114
446.000000	0.053286
445.000000	0.053800
444.000000	0.054068
443.000000	0.054302
442.000000	0.054757
441.000000	0.055122
440.000000	0.055242
439.000000	0.055860
438.000000	0.056087
437.000000	0.056387
436.000000	0.056846
435.000000	0.057372
434.000000	0.057544
433.000000	0.058040
432.000000	0.058425
431.000000	0.058832
430.000000	0.059198
429.000000	0.059745
428.000000	0.060023
427.000000	0.060569
426.000000	0.060914
425.000000	0.061330
424.000000	0.061820
423.000000	0.062445
422.000000	0.062795
421.000000	0.063351
420.000000	0.063783
419.000000	0.064267
418.000000	0.064729
417.000000	0.065413
416.000000	0.065740
415.000000	0.066384
414.000000	0.066762
413.000000	0.067364
412.000000	0.067928
411.000000	0.068537
410.000000	0.068911
409.000000	0.069750
408.000000	0.070263
407.000000	0.070887
406.000000	0.071524
405.000000	0.072298
404.000000	0.072578
403.000000	0.073446
402.000000	0.074118
401.000000	0.074812
400.000000	0.075451
399.000000	0.076403
398.000000	0.076768
397.000000	0.077756
396.000000	0.078485
395.000000	0.079221
394.000000	0.080014
393.000000	0.080996
392.000000	0.081549
391.000000	0.082610
390.000000	0.083379
389.000000	0.084218
388.000000	0.085210
387.000000	0.086121
386.000000	0.086898
385.000000	0.088115
384.000000	0.088985
383.000000	0.090006
382.000000	0.090982
381.000000	0.092148
380.000000	0.093046
379.000000	0.094360
378.000000	0.095270
377.000000	0.096063
376.000000	0.097164
375.000000	0.098565
374.000000	0.099650
373.000000	0.100865
372.000000	0.102172
371.000000	0.103520
370.000000	0.104758
369.000000	0.106205
368.000000	0.107474
367.000000	0.108818
366.000000	0.110186
365.000000	0.111732
364.000000	0.113017
363.000000	0.114586
362.000000	0.116034
361.000000	0.117516
360.000000	0.119102
359.000000	0.120727
358.000000	0.122136
357.000000	0.123852
356.000000	0.125552
355.000000	0.127143
354.000000	0.128895
353.000000	0.130671
352.000000	0.132226
351.000000	0.134153
350.000000	0.135846
349.000000	0.137638
348.000000	0.139480
347.000000	0.141289
346.000000	0.143049
345.000000	0.145080
344.000000	0.146962
343.000000	0.148907
342.000000	0.150879
341.000000	0.152974
340.000000	0.154943
339.000000	0.157122
338.000000	0.159127
337.000000	0.161169
336.000000	0.163446
335.000000	0.165530
334.000000	0.167625
333.000000	0.170020
332.000000	0.172202
331.000000	0.174536
330.000000	0.176792
329.000000	0.179119
328.000000	0.181343
327.000000	0.183885
326.000000	0.186182
325.000000	0.188579
324.000000	0.191164
323.000000	0.193558
322.000000	0.196032
321.000000	0.198730
320.000000	0.201221
319.000000	0.203760
318.000000	0.206311
317.000000	0.208894
316.000000	0.211451
315.000000	0.214038
314.000000	0.216954
313.000000	0.219879
312.000000	0.222707
311.000000	0.225630
310.000000	0.228515
309.000000	0.231376
308.000000	0.234505
307.000000	0.237465
306.000000	0.240473
305.000000	0.243547
304.000000	0.246660
303.000000	0.249899
302.000000	0.253114
301.000000	0.256268
300.000000	0.259598
299.000000	0.262953
298.000000	0.266258
297.000000	0.269751
296.000000	0.273369
295.000000	0.276864
294.000000	0.280478
293.000000	0.284314
292.000000	0.287976
291.000000	0.291731
290.000000	0.295686
289.000000	0.299609
288.000000	0.303575
287.000000	0.307752
286.000000	0.311884
285.000000	0.316075
284.000000	0.320318
283.000000	0.324442
282.000000	0.328723
281.000000	0.333120
280.000000	0.337330
279.000000	0.341664
278.000000	0.346037
277.000000	0.350326
276.000000	0.354726
275.000000	0.359368
274.000000	0.363971
273.000000	0.368534
272.000000	0.373001
271.000000	0.377541
270.000000	0.382039
269.000000	0.386436
268.000000	0.390720
267.000000	0.395087
266.000000	0.399250
265.000000	0.403466
264.000000	0.407714
263.000000	0.411759
262.000000	0.415594
261.000000	0.419582
260.000000	0.423417
259.000000	0.427161
258.000000	0.430873
257.000000	0.434741
256.000000	0.438319
255.000000	0.442102
254.000000	0.445825
253.000000	0.449772
252.000000	0.453800
251.000000	0.457899
250.000000	0.461976
249.000000	0.466503
248.000000	0.471201
247.000000	0.476097
246.000000	0.481587
245.000000	0.487477
244.000000	0.493464
243.000000	0.500435
242.000000	0.507896
241.000000	0.516031
240.000000	0.524925
239.000000	0.534557
238.000000	0.545259
237.000000	0.557283
236.000000	0.570420
235.000000	0.585341
234.000000	0.602016
233.000000	0.620733
232.000000	0.641608
231.000000	0.665303
230.000000	0.691540
229.000000	0.720799
228.000000	0.753527
227.000000	0.789939
226.000000	0.830209
225.000000	0.875164
224.000000	0.924363
223.000000	0.978039
222.000000	1.035796
221.000000	1.097639
220.000000	1.162380
219.000000	1.231133
218.000000	1.301807
217.000000	1.375235
216.000000	1.450098
215.000000	1.526055
214.000000	1.600875
213.000000	1.675830
212.000000	1.748338
211.000000	1.816942
210.000000	1.881987
209.000000	1.941378
208.000000	1.993265
207.000000	2.042357
206.000000	2.088286
205.000000	2.128777
204.000000	2.161353
203.000000	2.187783
202.000000	2.207782
201.000000	2.226911
200.000000	2.244732
