PE UV       SUBTECH     SPECTRUM    ASCII       PEDS        4.00        
   -1
MQ1.Sample.Raw.asc
10/10/15
09:36:54.00
10/10/15
09:36:54.00
Hermanni Kaartokallio

200.000000
1
Lambda 650
650N8121101
PerkinElmer UV WinLab 6.0.2.0723 / 1.61.00 Lambda 650

0
0
2
0
0
UV/VIS
1
1
1
uv/vis/nir detector
0
0
0
0
Fix
 
0
0.24
0
0
0
 
 
 
0
 
0
319.2
0
Front
100
 
 
 
0
0
0
 
0
 
 
 
0
 
 
0
0
0
0
0
 
 
 
 
0
0
#HDR
-1
-1
#GR
nm
A
1.0
0.0
800.000000
-1.000000
601
8
0.093232
0.031447
#DATA
800.000000	0.042097
799.000000	0.041949
798.000000	0.042173
797.000000	0.042421
796.000000	0.042542
795.000000	0.042502
794.000000	0.042648
793.000000	0.042787
792.000000	0.042725
791.000000	0.042885
790.000000	0.042961
789.000000	0.042990
788.000000	0.043033
787.000000	0.043087
786.000000	0.043162
785.000000	0.043436
784.000000	0.043420
783.000000	0.043453
782.000000	0.043639
781.000000	0.043614
780.000000	0.043501
779.000000	0.043683
778.000000	0.043638
777.000000	0.043676
776.000000	0.043616
775.000000	0.043697
774.000000	0.043543
773.000000	0.043412
772.000000	0.043363
771.000000	0.043416
770.000000	0.043274
769.000000	0.043139
768.000000	0.043162
767.000000	0.043170
766.000000	0.043184
765.000000	0.043075
764.000000	0.043067
763.000000	0.042993
762.000000	0.042910
761.000000	0.042993
760.000000	0.042831
759.000000	0.042900
758.000000	0.042948
757.000000	0.042969
756.000000	0.042970
755.000000	0.043124
754.000000	0.043228
753.000000	0.043294
752.000000	0.043321
751.000000	0.043247
750.000000	0.043399
749.000000	0.043562
748.000000	0.043560
747.000000	0.043608
746.000000	0.043708
745.000000	0.043663
744.000000	0.043561
743.000000	0.043476
742.000000	0.043557
741.000000	0.043470
740.000000	0.043366
739.000000	0.043210
738.000000	0.042878
737.000000	0.042633
736.000000	0.042361
735.000000	0.041985
734.000000	0.041500
733.000000	0.040971
732.000000	0.040354
731.000000	0.039799
730.000000	0.039304
729.000000	0.038756
728.000000	0.038412
727.000000	0.038002
726.000000	0.037624
725.000000	0.037319
724.000000	0.037072
723.000000	0.036803
722.000000	0.036467
721.000000	0.036187
720.000000	0.035936
719.000000	0.035665
718.000000	0.035513
717.000000	0.035338
716.000000	0.035050
715.000000	0.034708
714.000000	0.034402
713.000000	0.034230
712.000000	0.033961
711.000000	0.033690
710.000000	0.033446
709.000000	0.033164
708.000000	0.032909
707.000000	0.032751
706.000000	0.032604
705.000000	0.032437
704.000000	0.032248
703.000000	0.032117
702.000000	0.032046
701.000000	0.031917
700.000000	0.031815
699.000000	0.031751
698.000000	0.031600
697.000000	0.031447
696.000000	0.031477
695.000000	0.031578
694.000000	0.031535
693.000000	0.031478
692.000000	0.031547
691.000000	0.031599
690.000000	0.031634
689.000000	0.031780
688.000000	0.031850
687.000000	0.031862
686.000000	0.032008
685.000000	0.032142
684.000000	0.032186
683.000000	0.032279
682.000000	0.032339
681.000000	0.032457
680.000000	0.032529
679.000000	0.032637
678.000000	0.032790
677.000000	0.032851
676.000000	0.032848
675.000000	0.032905
674.000000	0.033022
673.000000	0.033003
672.000000	0.032999
671.000000	0.033053
670.000000	0.033061
669.000000	0.033017
668.000000	0.033041
667.000000	0.032979
666.000000	0.032934
665.000000	0.032870
664.000000	0.032833
663.000000	0.032725
662.000000	0.032641
661.000000	0.032583
660.000000	0.032584
659.000000	0.032464
658.000000	0.032322
657.000000	0.032268
656.000000	0.032294
655.000000	0.032203
654.000000	0.032134
653.000000	0.032113
652.000000	0.032049
651.000000	0.031927
650.000000	0.031921
649.000000	0.031951
648.000000	0.031862
647.000000	0.031881
646.000000	0.031816
645.000000	0.031858
644.000000	0.031802
643.000000	0.031754
642.000000	0.031805
641.000000	0.031681
640.000000	0.031549
639.000000	0.031549
638.000000	0.031640
637.000000	0.031653
636.000000	0.031564
635.000000	0.031612
634.000000	0.031610
633.000000	0.031595
632.000000	0.031620
631.000000	0.031667
630.000000	0.031653
629.000000	0.031711
628.000000	0.031675
627.000000	0.031675
626.000000	0.031663
625.000000	0.031684
624.000000	0.031744
623.000000	0.031800
622.000000	0.031820
621.000000	0.031884
620.000000	0.031995
619.000000	0.032018
618.000000	0.032044
617.000000	0.032124
616.000000	0.032159
615.000000	0.032205
614.000000	0.032174
613.000000	0.032270
612.000000	0.032375
611.000000	0.032386
610.000000	0.032421
609.000000	0.032465
608.000000	0.032553
607.000000	0.032525
606.000000	0.032489
605.000000	0.032623
604.000000	0.032530
603.000000	0.032561
602.000000	0.032600
601.000000	0.032629
600.000000	0.032583
599.000000	0.032586
598.000000	0.032594
597.000000	0.032493
596.000000	0.032486
595.000000	0.032514
594.000000	0.032467
593.000000	0.032479
592.000000	0.032355
591.000000	0.032295
590.000000	0.032280
589.000000	0.032258
588.000000	0.032142
587.000000	0.032176
586.000000	0.032173
585.000000	0.032019
584.000000	0.032037
583.000000	0.032011
582.000000	0.031978
581.000000	0.031895
580.000000	0.031909
579.000000	0.031848
578.000000	0.031819
577.000000	0.031882
576.000000	0.031942
575.000000	0.031847
574.000000	0.031791
573.000000	0.031790
572.000000	0.031916
571.000000	0.031863
570.000000	0.031858
569.000000	0.032012
568.000000	0.032124
567.000000	0.032062
566.000000	0.032129
565.000000	0.032238
564.000000	0.032313
563.000000	0.032270
562.000000	0.032371
561.000000	0.032300
560.000000	0.032299
559.000000	0.032455
558.000000	0.032518
557.000000	0.032507
556.000000	0.032563
555.000000	0.032657
554.000000	0.032718
553.000000	0.032690
552.000000	0.032822
551.000000	0.032930
550.000000	0.032862
549.000000	0.032937
548.000000	0.032968
547.000000	0.032961
546.000000	0.032987
545.000000	0.033030
544.000000	0.033136
543.000000	0.033069
542.000000	0.033071
541.000000	0.033179
540.000000	0.033199
539.000000	0.033227
538.000000	0.033267
537.000000	0.033239
536.000000	0.033264
535.000000	0.033299
534.000000	0.033381
533.000000	0.033498
532.000000	0.033443
531.000000	0.033437
530.000000	0.033383
529.000000	0.033544
528.000000	0.033576
527.000000	0.033591
526.000000	0.033692
525.000000	0.033694
524.000000	0.033643
523.000000	0.033700
522.000000	0.033757
521.000000	0.033760
520.000000	0.033762
519.000000	0.033740
518.000000	0.033736
517.000000	0.033783
516.000000	0.033789
515.000000	0.033765
514.000000	0.033769
513.000000	0.033664
512.000000	0.033627
511.000000	0.033687
510.000000	0.033608
509.000000	0.033514
508.000000	0.033534
507.000000	0.033504
506.000000	0.033451
505.000000	0.033421
504.000000	0.033454
503.000000	0.033383
502.000000	0.033271
501.000000	0.033203
500.000000	0.033109
499.000000	0.033046
498.000000	0.033003
497.000000	0.033000
496.000000	0.032925
495.000000	0.032772
494.000000	0.032726
493.000000	0.032762
492.000000	0.032718
491.000000	0.032641
490.000000	0.032615
489.000000	0.032556
488.000000	0.032478
487.000000	0.032490
486.000000	0.032499
485.000000	0.032427
484.000000	0.032409
483.000000	0.032420
482.000000	0.032468
481.000000	0.032402
480.000000	0.032349
479.000000	0.032402
478.000000	0.032464
477.000000	0.032406
476.000000	0.032407
475.000000	0.032464
474.000000	0.032497
473.000000	0.032463
472.000000	0.032516
471.000000	0.032587
470.000000	0.032537
469.000000	0.032598
468.000000	0.032657
467.000000	0.032648
466.000000	0.032631
465.000000	0.032618
464.000000	0.032713
463.000000	0.032685
462.000000	0.032688
461.000000	0.032744
460.000000	0.032859
459.000000	0.032861
458.000000	0.032905
457.000000	0.033006
456.000000	0.033003
455.000000	0.033025
454.000000	0.033071
453.000000	0.033070
452.000000	0.033127
451.000000	0.033182
450.000000	0.033275
449.000000	0.033353
448.000000	0.033306
447.000000	0.033309
446.000000	0.033395
445.000000	0.033491
444.000000	0.033533
443.000000	0.033565
442.000000	0.033657
441.000000	0.033582
440.000000	0.033626
439.000000	0.033857
438.000000	0.033799
437.000000	0.033748
436.000000	0.033863
435.000000	0.033942
434.000000	0.033988
433.000000	0.034030
432.000000	0.034115
431.000000	0.034207
430.000000	0.034138
429.000000	0.034162
428.000000	0.034344
427.000000	0.034382
426.000000	0.034417
425.000000	0.034409
424.000000	0.034533
423.000000	0.034314
422.000000	0.034362
421.000000	0.034581
420.000000	0.034585
419.000000	0.034695
418.000000	0.034658
417.000000	0.034709
416.000000	0.034833
415.000000	0.034780
414.000000	0.034778
413.000000	0.034875
412.000000	0.034844
411.000000	0.034800
410.000000	0.034892
409.000000	0.035038
408.000000	0.034882
407.000000	0.035253
406.000000	0.034949
405.000000	0.035062
404.000000	0.034940
403.000000	0.035049
402.000000	0.035174
401.000000	0.035070
400.000000	0.035007
399.000000	0.035135
398.000000	0.035053
397.000000	0.035025
396.000000	0.035089
395.000000	0.035136
394.000000	0.035148
393.000000	0.035013
392.000000	0.035086
391.000000	0.035195
390.000000	0.035093
389.000000	0.035111
388.000000	0.035354
387.000000	0.035129
386.000000	0.035033
385.000000	0.035054
384.000000	0.035145
383.000000	0.035155
382.000000	0.035089
381.000000	0.035064
380.000000	0.035134
379.000000	0.035120
378.000000	0.035025
377.000000	0.034665
376.000000	0.034823
375.000000	0.034803
374.000000	0.035022
373.000000	0.034994
372.000000	0.035029
371.000000	0.035019
370.000000	0.035167
369.000000	0.035159
368.000000	0.035112
367.000000	0.035243
366.000000	0.035322
365.000000	0.035348
364.000000	0.035420
363.000000	0.035522
362.000000	0.035583
361.000000	0.035559
360.000000	0.035612
359.000000	0.035656
358.000000	0.035773
357.000000	0.035754
356.000000	0.035833
355.000000	0.035878
354.000000	0.035887
353.000000	0.035870
352.000000	0.036065
351.000000	0.036116
350.000000	0.036095
349.000000	0.036153
348.000000	0.036230
347.000000	0.036238
346.000000	0.036270
345.000000	0.036402
344.000000	0.036455
343.000000	0.036511
342.000000	0.036632
341.000000	0.036639
340.000000	0.036668
339.000000	0.036652
338.000000	0.036748
337.000000	0.036910
336.000000	0.036967
335.000000	0.036949
334.000000	0.037050
333.000000	0.037140
332.000000	0.037176
331.000000	0.037255
330.000000	0.037335
329.000000	0.037307
328.000000	0.037319
327.000000	0.037472
326.000000	0.037552
325.000000	0.037596
324.000000	0.037594
323.000000	0.037565
322.000000	0.037672
321.000000	0.037713
320.000000	0.037865
319.000000	0.038002
318.000000	0.038092
317.000000	0.038157
316.000000	0.038101
315.000000	0.038109
314.000000	0.038260
313.000000	0.038449
312.000000	0.038461
311.000000	0.038394
310.000000	0.038459
309.000000	0.038654
308.000000	0.038749
307.000000	0.038806
306.000000	0.038902
305.000000	0.038919
304.000000	0.039028
303.000000	0.039247
302.000000	0.039323
301.000000	0.039316
300.000000	0.039408
299.000000	0.039450
298.000000	0.039498
297.000000	0.039676
296.000000	0.039843
295.000000	0.039994
294.000000	0.040056
293.000000	0.040044
292.000000	0.040165
291.000000	0.040382
290.000000	0.040470
289.000000	0.040591
288.000000	0.040711
287.000000	0.040751
286.000000	0.040862
285.000000	0.041098
284.000000	0.041186
283.000000	0.041218
282.000000	0.041367
281.000000	0.041551
280.000000	0.041647
279.000000	0.041693
278.000000	0.041789
277.000000	0.041927
276.000000	0.042079
275.000000	0.042090
274.000000	0.042220
273.000000	0.042407
272.000000	0.042450
271.000000	0.042584
270.000000	0.042792
269.000000	0.042882
268.000000	0.042955
267.000000	0.043068
266.000000	0.043239
265.000000	0.043334
264.000000	0.043505
263.000000	0.043620
262.000000	0.043748
261.000000	0.043942
260.000000	0.044012
259.000000	0.044190
258.000000	0.044347
257.000000	0.044452
256.000000	0.044678
255.000000	0.044884
254.000000	0.044991
253.000000	0.045215
252.000000	0.045422
251.000000	0.045613
250.000000	0.045797
249.000000	0.045977
248.000000	0.046418
247.000000	0.046626
246.000000	0.046792
245.000000	0.047007
244.000000	0.047338
243.000000	0.047602
242.000000	0.047863
241.000000	0.048324
240.000000	0.048670
239.000000	0.048862
238.000000	0.049235
237.000000	0.049683
236.000000	0.050068
235.000000	0.050335
234.000000	0.050872
233.000000	0.051228
232.000000	0.051522
231.000000	0.051893
230.000000	0.052446
229.000000	0.052859
228.000000	0.053332
227.000000	0.053600
226.000000	0.054077
225.000000	0.054586
224.000000	0.055108
223.000000	0.055487
222.000000	0.056097
221.000000	0.056509
220.000000	0.057158
219.000000	0.058013
218.000000	0.058567
217.000000	0.059341
216.000000	0.060243
215.000000	0.061298
214.000000	0.062051
213.000000	0.063272
212.000000	0.064773
211.000000	0.065966
210.000000	0.067408
209.000000	0.068920
208.000000	0.070748
207.000000	0.072927
206.000000	0.074936
205.000000	0.077441
204.000000	0.079954
203.000000	0.082880
202.000000	0.086055
201.000000	0.089592
200.000000	0.093232
