PE UV       SUBTECH     SPECTRUM    ASCII       PEDS        4.00        
   -1
MQ2.Sample.Raw.asc
10/10/15
09:40:50.00
10/10/15
09:40:50.00
Hermanni Kaartokallio

200.000000
1
Lambda 650
650N8121101
PerkinElmer UV WinLab 6.0.2.0723 / 1.61.00 Lambda 650

0
0
2
0
0
UV/VIS
1
1
1
uv/vis/nir detector
0
0
0
0
Fix
 
0
0.24
0
0
0
 
 
 
0
 
0
319.2
0
Front
100
 
 
 
0
0
0
 
0
 
 
 
0
 
 
0
0
0
0
0
 
 
 
 
0
0
#HDR
-1
-1
#GR
nm
A
1.0
0.0
800.000000
-1.000000
601
8
0.093219
0.031510
#DATA
800.000000	0.042046
799.000000	0.041945
798.000000	0.042394
797.000000	0.042460
796.000000	0.042550
795.000000	0.042541
794.000000	0.042796
793.000000	0.042835
792.000000	0.042684
791.000000	0.042860
790.000000	0.043101
789.000000	0.042977
788.000000	0.043034
787.000000	0.043106
786.000000	0.043160
785.000000	0.043301
784.000000	0.043310
783.000000	0.043514
782.000000	0.043648
781.000000	0.043482
780.000000	0.043490
779.000000	0.043650
778.000000	0.043615
777.000000	0.043658
776.000000	0.043709
775.000000	0.043734
774.000000	0.043519
773.000000	0.043386
772.000000	0.043387
771.000000	0.043453
770.000000	0.043238
769.000000	0.043252
768.000000	0.043212
767.000000	0.043104
766.000000	0.043132
765.000000	0.043149
764.000000	0.043162
763.000000	0.043074
762.000000	0.042978
761.000000	0.043003
760.000000	0.042876
759.000000	0.042898
758.000000	0.043050
757.000000	0.042980
756.000000	0.042922
755.000000	0.043057
754.000000	0.043249
753.000000	0.043283
752.000000	0.043265
751.000000	0.043342
750.000000	0.043493
749.000000	0.043515
748.000000	0.043529
747.000000	0.043691
746.000000	0.043684
745.000000	0.043605
744.000000	0.043630
743.000000	0.043674
742.000000	0.043624
741.000000	0.043430
740.000000	0.043364
739.000000	0.043237
738.000000	0.042882
737.000000	0.042627
736.000000	0.042416
735.000000	0.042006
734.000000	0.041551
733.000000	0.041017
732.000000	0.040518
731.000000	0.039931
730.000000	0.039357
729.000000	0.038835
728.000000	0.038433
727.000000	0.037998
726.000000	0.037583
725.000000	0.037386
724.000000	0.037168
723.000000	0.036805
722.000000	0.036537
721.000000	0.036331
720.000000	0.035977
719.000000	0.035702
718.000000	0.035565
717.000000	0.035339
716.000000	0.035100
715.000000	0.034806
714.000000	0.034492
713.000000	0.034222
712.000000	0.033898
711.000000	0.033690
710.000000	0.033516
709.000000	0.033236
708.000000	0.033020
707.000000	0.032879
706.000000	0.032653
705.000000	0.032440
704.000000	0.032311
703.000000	0.032226
702.000000	0.032079
701.000000	0.031934
700.000000	0.031885
699.000000	0.031836
698.000000	0.031647
697.000000	0.031510
696.000000	0.031579
695.000000	0.031638
694.000000	0.031561
693.000000	0.031571
692.000000	0.031649
691.000000	0.031605
690.000000	0.031640
689.000000	0.031825
688.000000	0.031860
687.000000	0.031883
686.000000	0.032079
685.000000	0.032201
684.000000	0.032203
683.000000	0.032291
682.000000	0.032421
681.000000	0.032473
680.000000	0.032541
679.000000	0.032691
678.000000	0.032826
677.000000	0.032860
676.000000	0.032830
675.000000	0.032941
674.000000	0.033059
673.000000	0.032979
672.000000	0.033016
671.000000	0.033069
670.000000	0.033042
669.000000	0.033000
668.000000	0.033095
667.000000	0.033040
666.000000	0.032937
665.000000	0.032884
664.000000	0.032898
663.000000	0.032788
662.000000	0.032662
661.000000	0.032595
660.000000	0.032604
659.000000	0.032470
658.000000	0.032339
657.000000	0.032320
656.000000	0.032352
655.000000	0.032252
654.000000	0.032140
653.000000	0.032184
652.000000	0.032082
651.000000	0.031977
650.000000	0.032023
649.000000	0.032054
648.000000	0.031953
647.000000	0.031912
646.000000	0.031874
645.000000	0.031928
644.000000	0.031828
643.000000	0.031805
642.000000	0.031921
641.000000	0.031807
640.000000	0.031661
639.000000	0.031685
638.000000	0.031736
637.000000	0.031681
636.000000	0.031654
635.000000	0.031762
634.000000	0.031640
633.000000	0.031621
632.000000	0.031704
631.000000	0.031733
630.000000	0.031696
629.000000	0.031764
628.000000	0.031752
627.000000	0.031772
626.000000	0.031698
625.000000	0.031729
624.000000	0.031828
623.000000	0.031913
622.000000	0.031843
621.000000	0.031875
620.000000	0.032039
619.000000	0.032047
618.000000	0.032067
617.000000	0.032203
616.000000	0.032212
615.000000	0.032253
614.000000	0.032227
613.000000	0.032392
612.000000	0.032432
611.000000	0.032404
610.000000	0.032490
609.000000	0.032489
608.000000	0.032543
607.000000	0.032529
606.000000	0.032595
605.000000	0.032687
604.000000	0.032544
603.000000	0.032591
602.000000	0.032711
601.000000	0.032682
600.000000	0.032574
599.000000	0.032663
598.000000	0.032569
597.000000	0.032557
596.000000	0.032510
595.000000	0.032581
594.000000	0.032590
593.000000	0.032415
592.000000	0.032364
591.000000	0.032334
590.000000	0.032258
589.000000	0.032255
588.000000	0.032218
587.000000	0.032263
586.000000	0.032144
585.000000	0.031996
584.000000	0.032077
583.000000	0.032026
582.000000	0.031961
581.000000	0.031940
580.000000	0.032025
579.000000	0.031871
578.000000	0.031825
577.000000	0.031904
576.000000	0.031927
575.000000	0.031865
574.000000	0.031803
573.000000	0.031865
572.000000	0.031977
571.000000	0.031856
570.000000	0.031978
569.000000	0.032021
568.000000	0.032118
567.000000	0.031989
566.000000	0.032223
565.000000	0.032359
564.000000	0.032271
563.000000	0.032283
562.000000	0.032434
561.000000	0.032286
560.000000	0.032308
559.000000	0.032508
558.000000	0.032552
557.000000	0.032581
556.000000	0.032613
555.000000	0.032706
554.000000	0.032724
553.000000	0.032747
552.000000	0.032898
551.000000	0.032944
550.000000	0.032870
549.000000	0.032932
548.000000	0.033022
547.000000	0.033025
546.000000	0.033023
545.000000	0.033087
544.000000	0.033170
543.000000	0.033074
542.000000	0.033037
541.000000	0.033237
540.000000	0.033258
539.000000	0.033211
538.000000	0.033258
537.000000	0.033354
536.000000	0.033309
535.000000	0.033357
534.000000	0.033440
533.000000	0.033540
532.000000	0.033481
531.000000	0.033488
530.000000	0.033520
529.000000	0.033643
528.000000	0.033625
527.000000	0.033648
526.000000	0.033768
525.000000	0.033702
524.000000	0.033603
523.000000	0.033728
522.000000	0.033790
521.000000	0.033763
520.000000	0.033818
519.000000	0.033837
518.000000	0.033764
517.000000	0.033758
516.000000	0.033853
515.000000	0.033862
514.000000	0.033802
513.000000	0.033711
512.000000	0.033720
511.000000	0.033716
510.000000	0.033566
509.000000	0.033549
508.000000	0.033620
507.000000	0.033555
506.000000	0.033449
505.000000	0.033457
504.000000	0.033491
503.000000	0.033394
502.000000	0.033322
501.000000	0.033308
500.000000	0.033205
499.000000	0.033126
498.000000	0.033085
497.000000	0.033092
496.000000	0.032987
495.000000	0.032777
494.000000	0.032761
493.000000	0.032789
492.000000	0.032724
491.000000	0.032641
490.000000	0.032646
489.000000	0.032560
488.000000	0.032464
487.000000	0.032505
486.000000	0.032529
485.000000	0.032444
484.000000	0.032427
483.000000	0.032452
482.000000	0.032473
481.000000	0.032456
480.000000	0.032474
479.000000	0.032523
478.000000	0.032495
477.000000	0.032445
476.000000	0.032485
475.000000	0.032528
474.000000	0.032522
473.000000	0.032505
472.000000	0.032589
471.000000	0.032610
470.000000	0.032551
469.000000	0.032642
468.000000	0.032710
467.000000	0.032685
466.000000	0.032653
465.000000	0.032681
464.000000	0.032786
463.000000	0.032763
462.000000	0.032710
461.000000	0.032812
460.000000	0.032878
459.000000	0.032901
458.000000	0.032973
457.000000	0.033089
456.000000	0.033024
455.000000	0.033058
454.000000	0.033144
453.000000	0.033207
452.000000	0.033133
451.000000	0.033224
450.000000	0.033329
449.000000	0.033400
448.000000	0.033332
447.000000	0.033358
446.000000	0.033404
445.000000	0.033474
444.000000	0.033529
443.000000	0.033634
442.000000	0.033731
441.000000	0.033561
440.000000	0.033610
439.000000	0.033857
438.000000	0.033792
437.000000	0.033799
436.000000	0.034011
435.000000	0.034033
434.000000	0.034000
433.000000	0.034051
432.000000	0.034132
431.000000	0.034240
430.000000	0.034146
429.000000	0.034176
428.000000	0.034394
427.000000	0.034338
426.000000	0.034406
425.000000	0.034452
424.000000	0.034536
423.000000	0.034530
422.000000	0.034547
421.000000	0.034667
420.000000	0.034724
419.000000	0.034746
418.000000	0.034841
417.000000	0.034853
416.000000	0.034839
415.000000	0.034819
414.000000	0.034917
413.000000	0.034993
412.000000	0.034879
411.000000	0.034845
410.000000	0.034923
409.000000	0.035044
408.000000	0.034968
407.000000	0.035132
406.000000	0.035089
405.000000	0.034917
404.000000	0.034922
403.000000	0.035083
402.000000	0.035103
401.000000	0.034990
400.000000	0.035042
399.000000	0.035161
398.000000	0.035082
397.000000	0.035000
396.000000	0.035179
395.000000	0.035213
394.000000	0.035126
393.000000	0.034999
392.000000	0.035182
391.000000	0.035217
390.000000	0.035059
389.000000	0.035133
388.000000	0.035343
387.000000	0.035079
386.000000	0.034977
385.000000	0.035175
384.000000	0.035232
383.000000	0.035129
382.000000	0.035139
381.000000	0.035207
380.000000	0.035295
379.000000	0.035120
378.000000	0.035158
377.000000	0.034790
376.000000	0.034848
375.000000	0.034898
374.000000	0.035125
373.000000	0.035064
372.000000	0.035010
371.000000	0.035072
370.000000	0.035371
369.000000	0.035255
368.000000	0.035260
367.000000	0.035367
366.000000	0.035556
365.000000	0.035365
364.000000	0.035425
363.000000	0.035565
362.000000	0.035635
361.000000	0.035557
360.000000	0.035656
359.000000	0.035689
358.000000	0.035718
357.000000	0.035843
356.000000	0.036094
355.000000	0.035980
354.000000	0.035913
353.000000	0.035953
352.000000	0.036184
351.000000	0.036187
350.000000	0.036163
349.000000	0.036295
348.000000	0.036393
347.000000	0.036279
346.000000	0.036280
345.000000	0.036471
344.000000	0.036498
343.000000	0.036550
342.000000	0.036626
341.000000	0.036727
340.000000	0.036757
339.000000	0.036769
338.000000	0.036906
337.000000	0.036995
336.000000	0.037009
335.000000	0.036946
334.000000	0.037096
333.000000	0.037235
332.000000	0.037237
331.000000	0.037351
330.000000	0.037403
329.000000	0.037306
328.000000	0.037396
327.000000	0.037534
326.000000	0.037650
325.000000	0.037643
324.000000	0.037677
323.000000	0.037688
322.000000	0.037741
321.000000	0.037768
320.000000	0.037924
319.000000	0.038015
318.000000	0.038067
317.000000	0.038181
316.000000	0.038080
315.000000	0.038116
314.000000	0.038311
313.000000	0.038490
312.000000	0.038430
311.000000	0.038459
310.000000	0.038578
309.000000	0.038651
308.000000	0.038747
307.000000	0.038921
306.000000	0.039044
305.000000	0.039029
304.000000	0.039095
303.000000	0.039302
302.000000	0.039359
301.000000	0.039316
300.000000	0.039420
299.000000	0.039510
298.000000	0.039538
297.000000	0.039674
296.000000	0.039836
295.000000	0.040004
294.000000	0.040072
293.000000	0.040115
292.000000	0.040234
291.000000	0.040394
290.000000	0.040432
289.000000	0.040576
288.000000	0.040788
287.000000	0.040827
286.000000	0.040928
285.000000	0.041160
284.000000	0.041312
283.000000	0.041327
282.000000	0.041447
281.000000	0.041611
280.000000	0.041701
279.000000	0.041710
278.000000	0.041929
277.000000	0.042099
276.000000	0.042094
275.000000	0.042055
274.000000	0.042219
273.000000	0.042436
272.000000	0.042447
271.000000	0.042610
270.000000	0.042893
269.000000	0.042878
268.000000	0.042884
267.000000	0.043104
266.000000	0.043307
265.000000	0.043337
264.000000	0.043508
263.000000	0.043601
262.000000	0.043703
261.000000	0.043942
260.000000	0.044090
259.000000	0.044312
258.000000	0.044400
257.000000	0.044454
256.000000	0.044694
255.000000	0.044936
254.000000	0.045001
253.000000	0.045260
252.000000	0.045481
251.000000	0.045629
250.000000	0.045807
249.000000	0.046102
248.000000	0.046478
247.000000	0.046630
246.000000	0.046821
245.000000	0.047079
244.000000	0.047330
243.000000	0.047642
242.000000	0.047962
241.000000	0.048365
240.000000	0.048655
239.000000	0.048799
238.000000	0.049236
237.000000	0.049707
236.000000	0.049965
235.000000	0.050278
234.000000	0.050897
233.000000	0.051120
232.000000	0.051450
231.000000	0.051890
230.000000	0.052450
229.000000	0.052817
228.000000	0.053221
227.000000	0.053635
226.000000	0.054108
225.000000	0.054577
224.000000	0.055033
223.000000	0.055518
222.000000	0.056025
221.000000	0.056368
220.000000	0.057153
219.000000	0.057961
218.000000	0.058583
217.000000	0.059274
216.000000	0.060257
215.000000	0.061260
214.000000	0.061940
213.000000	0.063222
212.000000	0.064632
211.000000	0.065933
210.000000	0.067212
209.000000	0.068898
208.000000	0.070713
207.000000	0.072605
206.000000	0.074820
205.000000	0.077317
204.000000	0.079847
203.000000	0.082576
202.000000	0.085802
201.000000	0.089360
200.000000	0.093219
