PE UV       SUBTECH     SPECTRUM    ASCII       PEDS        4.00        
   -1
MQ3.Sample.Raw.asc
10/10/15
15:11:40.00
10/10/15
15:11:40.00
Hermanni Kaartokallio

200.000000
1
Lambda 650
650N8121101
PerkinElmer UV WinLab 6.0.2.0723 / 1.61.00 Lambda 650

0
0
2
0
0
UV/VIS
1
1
1
uv/vis/nir detector
0
0
0
0
Fix
 
0
0.24
0
0
0
 
 
 
0
 
0
319.2
0
Front
100
 
 
 
0
0
0
 
0
 
 
 
0
 
 
0
0
0
0
0
 
 
 
 
0
0
#HDR
-1
-1
#GR
nm
A
1.0
0.0
800.000000
-1.000000
601
8
0.104669
0.032454
#DATA
800.000000	0.043328
799.000000	0.043361
798.000000	0.043772
797.000000	0.043817
796.000000	0.043799
795.000000	0.043879
794.000000	0.044119
793.000000	0.044022
792.000000	0.044159
791.000000	0.044251
790.000000	0.044190
789.000000	0.044006
788.000000	0.044097
787.000000	0.044278
786.000000	0.044341
785.000000	0.044528
784.000000	0.044436
783.000000	0.044509
782.000000	0.044545
781.000000	0.044534
780.000000	0.044660
779.000000	0.044775
778.000000	0.044570
777.000000	0.044484
776.000000	0.044555
775.000000	0.044535
774.000000	0.044500
773.000000	0.044399
772.000000	0.044376
771.000000	0.044192
770.000000	0.044196
769.000000	0.044200
768.000000	0.044190
767.000000	0.043976
766.000000	0.043982
765.000000	0.043981
764.000000	0.043858
763.000000	0.043805
762.000000	0.043883
761.000000	0.043770
760.000000	0.043538
759.000000	0.043644
758.000000	0.043713
757.000000	0.043808
756.000000	0.043793
755.000000	0.043994
754.000000	0.044108
753.000000	0.044020
752.000000	0.044070
751.000000	0.044199
750.000000	0.044485
749.000000	0.044518
748.000000	0.044600
747.000000	0.044624
746.000000	0.044578
745.000000	0.044580
744.000000	0.044852
743.000000	0.044806
742.000000	0.044722
741.000000	0.044512
740.000000	0.044491
739.000000	0.044407
738.000000	0.044136
737.000000	0.043884
736.000000	0.043632
735.000000	0.043147
734.000000	0.042653
733.000000	0.042272
732.000000	0.041787
731.000000	0.041019
730.000000	0.040392
729.000000	0.039911
728.000000	0.039419
727.000000	0.038977
726.000000	0.038687
725.000000	0.038467
724.000000	0.038074
723.000000	0.037686
722.000000	0.037544
721.000000	0.037402
720.000000	0.037095
719.000000	0.036760
718.000000	0.036630
717.000000	0.036321
716.000000	0.035957
715.000000	0.035744
714.000000	0.035550
713.000000	0.035270
712.000000	0.034957
711.000000	0.034675
710.000000	0.034457
709.000000	0.034238
708.000000	0.034106
707.000000	0.033919
706.000000	0.033643
705.000000	0.033414
704.000000	0.033269
703.000000	0.033186
702.000000	0.033063
701.000000	0.032948
700.000000	0.032875
699.000000	0.032706
698.000000	0.032499
697.000000	0.032464
696.000000	0.032454
695.000000	0.032458
694.000000	0.032463
693.000000	0.032465
692.000000	0.032526
691.000000	0.032554
690.000000	0.032644
689.000000	0.032723
688.000000	0.032816
687.000000	0.032902
686.000000	0.033045
685.000000	0.033086
684.000000	0.033052
683.000000	0.033116
682.000000	0.033366
681.000000	0.033449
680.000000	0.033485
679.000000	0.033600
678.000000	0.033697
677.000000	0.033763
676.000000	0.033939
675.000000	0.034001
674.000000	0.034053
673.000000	0.033951
672.000000	0.034010
671.000000	0.034046
670.000000	0.034091
669.000000	0.034107
668.000000	0.034132
667.000000	0.034008
666.000000	0.033809
665.000000	0.033807
664.000000	0.033929
663.000000	0.033795
662.000000	0.033648
661.000000	0.033651
660.000000	0.033648
659.000000	0.033509
658.000000	0.033503
657.000000	0.033468
656.000000	0.033414
655.000000	0.033270
654.000000	0.033280
653.000000	0.033321
652.000000	0.033306
651.000000	0.033145
650.000000	0.033200
649.000000	0.033208
648.000000	0.033149
647.000000	0.033138
646.000000	0.033192
645.000000	0.033211
644.000000	0.033118
643.000000	0.033141
642.000000	0.033182
641.000000	0.033086
640.000000	0.033154
639.000000	0.033169
638.000000	0.033196
637.000000	0.033088
636.000000	0.033034
635.000000	0.033200
634.000000	0.033261
633.000000	0.033108
632.000000	0.033206
631.000000	0.033243
630.000000	0.033208
629.000000	0.033297
628.000000	0.033404
627.000000	0.033412
626.000000	0.033369
625.000000	0.033306
624.000000	0.033423
623.000000	0.033538
622.000000	0.033634
621.000000	0.033663
620.000000	0.033807
619.000000	0.033731
618.000000	0.033799
617.000000	0.033879
616.000000	0.034111
615.000000	0.033959
614.000000	0.034010
613.000000	0.034105
612.000000	0.034128
611.000000	0.034074
610.000000	0.034234
609.000000	0.034285
608.000000	0.034295
607.000000	0.034161
606.000000	0.034208
605.000000	0.034289
604.000000	0.034319
603.000000	0.034277
602.000000	0.034344
601.000000	0.034232
600.000000	0.034177
599.000000	0.034126
598.000000	0.034124
597.000000	0.034113
596.000000	0.033960
595.000000	0.034044
594.000000	0.033938
593.000000	0.033829
592.000000	0.033685
591.000000	0.033761
590.000000	0.033623
589.000000	0.033657
588.000000	0.033533
587.000000	0.033601
586.000000	0.033500
585.000000	0.033442
584.000000	0.033299
583.000000	0.033434
582.000000	0.033270
581.000000	0.033203
580.000000	0.033323
579.000000	0.033324
578.000000	0.033165
577.000000	0.033293
576.000000	0.033222
575.000000	0.033094
574.000000	0.033146
573.000000	0.033285
572.000000	0.033306
571.000000	0.033269
570.000000	0.033223
569.000000	0.033347
568.000000	0.033487
567.000000	0.033454
566.000000	0.033632
565.000000	0.033686
564.000000	0.033648
563.000000	0.033668
562.000000	0.033748
561.000000	0.033674
560.000000	0.033825
559.000000	0.033901
558.000000	0.033912
557.000000	0.033858
556.000000	0.033956
555.000000	0.034128
554.000000	0.034239
553.000000	0.034139
552.000000	0.034219
551.000000	0.034201
550.000000	0.034189
549.000000	0.034286
548.000000	0.034455
547.000000	0.034411
546.000000	0.034391
545.000000	0.034367
544.000000	0.034432
543.000000	0.034463
542.000000	0.034505
541.000000	0.034545
540.000000	0.034588
539.000000	0.034552
538.000000	0.034631
537.000000	0.034675
536.000000	0.034757
535.000000	0.034799
534.000000	0.034805
533.000000	0.034891
532.000000	0.034867
531.000000	0.034890
530.000000	0.035013
529.000000	0.035140
528.000000	0.035106
527.000000	0.035008
526.000000	0.035112
525.000000	0.035158
524.000000	0.035076
523.000000	0.035088
522.000000	0.035139
521.000000	0.035115
520.000000	0.035108
519.000000	0.035190
518.000000	0.035222
517.000000	0.035120
516.000000	0.035094
515.000000	0.035107
514.000000	0.035096
513.000000	0.035049
512.000000	0.035038
511.000000	0.035050
510.000000	0.034977
509.000000	0.034863
508.000000	0.034874
507.000000	0.034894
506.000000	0.034870
505.000000	0.034813
504.000000	0.034776
503.000000	0.034616
502.000000	0.034519
501.000000	0.034602
500.000000	0.034581
499.000000	0.034439
498.000000	0.034343
497.000000	0.034301
496.000000	0.034271
495.000000	0.034235
494.000000	0.034184
493.000000	0.034155
492.000000	0.034124
491.000000	0.034053
490.000000	0.034053
489.000000	0.034122
488.000000	0.034085
487.000000	0.034063
486.000000	0.034076
485.000000	0.034030
484.000000	0.034033
483.000000	0.034165
482.000000	0.034183
481.000000	0.034083
480.000000	0.034041
479.000000	0.034052
478.000000	0.034067
477.000000	0.034133
476.000000	0.034180
475.000000	0.034211
474.000000	0.034218
473.000000	0.034217
472.000000	0.034235
471.000000	0.034376
470.000000	0.034345
469.000000	0.034402
468.000000	0.034462
467.000000	0.034464
466.000000	0.034485
465.000000	0.034556
464.000000	0.034584
463.000000	0.034635
462.000000	0.034588
461.000000	0.034634
460.000000	0.034689
459.000000	0.034842
458.000000	0.034848
457.000000	0.034901
456.000000	0.034906
455.000000	0.034891
454.000000	0.034920
453.000000	0.035098
452.000000	0.035104
451.000000	0.035146
450.000000	0.035164
449.000000	0.035198
448.000000	0.035244
447.000000	0.035397
446.000000	0.035428
445.000000	0.035495
444.000000	0.035519
443.000000	0.035441
442.000000	0.035511
441.000000	0.035674
440.000000	0.035716
439.000000	0.035861
438.000000	0.035774
437.000000	0.035787
436.000000	0.035871
435.000000	0.036017
434.000000	0.036075
433.000000	0.036088
432.000000	0.036031
431.000000	0.036067
430.000000	0.036068
429.000000	0.036246
428.000000	0.036343
427.000000	0.036308
426.000000	0.036372
425.000000	0.036315
424.000000	0.036405
423.000000	0.036646
422.000000	0.036585
421.000000	0.036552
420.000000	0.036609
419.000000	0.036613
418.000000	0.036543
417.000000	0.036729
416.000000	0.036719
415.000000	0.036697
414.000000	0.036635
413.000000	0.036674
412.000000	0.036699
411.000000	0.036875
410.000000	0.036777
409.000000	0.036858
408.000000	0.036889
407.000000	0.036874
406.000000	0.036866
405.000000	0.036959
404.000000	0.036908
403.000000	0.037058
402.000000	0.036893
401.000000	0.037045
400.000000	0.036939
399.000000	0.037088
398.000000	0.036984
397.000000	0.037086
396.000000	0.037091
395.000000	0.037017
394.000000	0.036983
393.000000	0.037157
392.000000	0.037097
391.000000	0.037078
390.000000	0.037018
389.000000	0.037066
388.000000	0.037193
387.000000	0.037192
386.000000	0.037089
385.000000	0.037169
384.000000	0.037124
383.000000	0.037152
382.000000	0.037130
381.000000	0.037279
380.000000	0.037263
379.000000	0.037308
378.000000	0.037038
377.000000	0.036769
376.000000	0.036814
375.000000	0.036971
374.000000	0.036980
373.000000	0.037034
372.000000	0.037118
371.000000	0.037283
370.000000	0.037364
369.000000	0.037400
368.000000	0.037411
367.000000	0.037449
366.000000	0.037594
365.000000	0.037688
364.000000	0.037802
363.000000	0.037752
362.000000	0.037878
361.000000	0.037918
360.000000	0.037960
359.000000	0.038082
358.000000	0.038177
357.000000	0.038249
356.000000	0.038254
355.000000	0.038282
354.000000	0.038354
353.000000	0.038554
352.000000	0.038594
351.000000	0.038591
350.000000	0.038662
349.000000	0.038757
348.000000	0.038848
347.000000	0.038943
346.000000	0.038944
345.000000	0.039083
344.000000	0.039047
343.000000	0.039110
342.000000	0.039225
341.000000	0.039336
340.000000	0.039279
339.000000	0.039462
338.000000	0.039529
337.000000	0.039548
336.000000	0.039676
335.000000	0.039855
334.000000	0.039805
333.000000	0.039910
332.000000	0.039940
331.000000	0.040043
330.000000	0.040141
329.000000	0.040174
328.000000	0.040281
327.000000	0.040313
326.000000	0.040332
325.000000	0.040451
324.000000	0.040575
323.000000	0.040595
322.000000	0.040598
321.000000	0.040725
320.000000	0.040859
319.000000	0.040928
318.000000	0.040814
317.000000	0.040644
316.000000	0.040612
315.000000	0.040772
314.000000	0.040988
313.000000	0.041032
312.000000	0.041052
311.000000	0.041178
310.000000	0.041200
309.000000	0.041235
308.000000	0.041537
307.000000	0.041617
306.000000	0.041614
305.000000	0.041737
304.000000	0.041999
303.000000	0.042171
302.000000	0.042133
301.000000	0.042117
300.000000	0.042273
299.000000	0.042452
298.000000	0.042517
297.000000	0.042695
296.000000	0.042877
295.000000	0.042903
294.000000	0.043000
293.000000	0.043179
292.000000	0.043291
291.000000	0.043387
290.000000	0.043555
289.000000	0.043755
288.000000	0.043835
287.000000	0.044019
286.000000	0.044235
285.000000	0.044383
284.000000	0.044448
283.000000	0.044534
282.000000	0.044716
281.000000	0.044929
280.000000	0.045015
279.000000	0.045160
278.000000	0.045274
277.000000	0.045305
276.000000	0.045470
275.000000	0.045708
274.000000	0.045857
273.000000	0.045931
272.000000	0.046052
271.000000	0.046299
270.000000	0.046451
269.000000	0.046588
268.000000	0.046771
267.000000	0.046938
266.000000	0.046978
265.000000	0.047074
264.000000	0.047305
263.000000	0.047525
262.000000	0.047573
261.000000	0.047797
260.000000	0.047964
259.000000	0.048103
258.000000	0.048236
257.000000	0.048575
256.000000	0.048713
255.000000	0.048853
254.000000	0.048984
253.000000	0.049354
252.000000	0.049512
251.000000	0.049787
250.000000	0.050023
249.000000	0.050264
248.000000	0.050636
247.000000	0.050849
246.000000	0.051138
245.000000	0.051583
244.000000	0.051824
243.000000	0.052147
242.000000	0.052518
241.000000	0.052915
240.000000	0.053204
239.000000	0.053711
238.000000	0.054288
237.000000	0.054610
236.000000	0.054932
235.000000	0.055420
234.000000	0.056007
233.000000	0.056487
232.000000	0.056774
231.000000	0.057442
230.000000	0.058013
229.000000	0.058349
228.000000	0.058962
227.000000	0.059607
226.000000	0.060014
225.000000	0.060660
224.000000	0.061196
223.000000	0.061754
222.000000	0.062329
221.000000	0.062999
220.000000	0.063838
219.000000	0.064711
218.000000	0.065321
217.000000	0.066167
216.000000	0.067369
215.000000	0.068794
214.000000	0.069615
213.000000	0.071252
212.000000	0.072727
211.000000	0.074156
210.000000	0.075895
209.000000	0.078045
208.000000	0.079841
207.000000	0.082091
206.000000	0.084540
205.000000	0.087474
204.000000	0.090231
203.000000	0.093477
202.000000	0.096943
201.000000	0.100791
200.000000	0.104669
