PE UV       SUBTECH     SPECTRUM    ASCII       PEDS        4.00        
   -1
MQ4.Sample.Raw.asc
10/10/15
15:15:43.00
10/10/15
15:15:43.00
Hermanni Kaartokallio

200.000000
1
Lambda 650
650N8121101
PerkinElmer UV WinLab 6.0.2.0723 / 1.61.00 Lambda 650

0
0
2
0
0
UV/VIS
1
1
1
uv/vis/nir detector
0
0
0
0
Fix
 
0
0.24
0
0
0
 
 
 
0
 
0
319.2
0
Front
100
 
 
 
0
0
0
 
0
 
 
 
0
 
 
0
0
0
0
0
 
 
 
 
0
0
#HDR
-1
-1
#GR
nm
A
1.0
0.0
800.000000
-1.000000
601
8
0.103581
0.032661
#DATA
800.000000	0.043436
799.000000	0.043362
798.000000	0.043736
797.000000	0.043825
796.000000	0.043850
795.000000	0.043893
794.000000	0.044027
793.000000	0.044062
792.000000	0.044058
791.000000	0.044094
790.000000	0.044310
789.000000	0.044074
788.000000	0.043925
787.000000	0.044162
786.000000	0.044311
785.000000	0.044307
784.000000	0.044410
783.000000	0.044434
782.000000	0.044588
781.000000	0.044466
780.000000	0.044586
779.000000	0.044762
778.000000	0.044618
777.000000	0.044528
776.000000	0.044670
775.000000	0.044655
774.000000	0.044546
773.000000	0.044383
772.000000	0.044410
771.000000	0.044320
770.000000	0.044163
769.000000	0.044263
768.000000	0.044304
767.000000	0.044145
766.000000	0.044095
765.000000	0.044068
764.000000	0.044092
763.000000	0.043910
762.000000	0.043969
761.000000	0.043915
760.000000	0.043811
759.000000	0.043840
758.000000	0.043927
757.000000	0.043950
756.000000	0.043970
755.000000	0.044051
754.000000	0.044252
753.000000	0.044272
752.000000	0.044251
751.000000	0.044395
750.000000	0.044710
749.000000	0.044767
748.000000	0.044789
747.000000	0.044828
746.000000	0.044871
745.000000	0.044914
744.000000	0.045039
743.000000	0.044989
742.000000	0.044892
741.000000	0.044681
740.000000	0.044638
739.000000	0.044594
738.000000	0.044391
737.000000	0.044008
736.000000	0.043752
735.000000	0.043307
734.000000	0.042780
733.000000	0.042334
732.000000	0.041870
731.000000	0.041176
730.000000	0.040523
729.000000	0.039955
728.000000	0.039549
727.000000	0.039103
726.000000	0.038729
725.000000	0.038445
724.000000	0.038174
723.000000	0.037749
722.000000	0.037486
721.000000	0.037385
720.000000	0.037137
719.000000	0.036847
718.000000	0.036655
717.000000	0.036427
716.000000	0.036165
715.000000	0.035870
714.000000	0.035665
713.000000	0.035403
712.000000	0.035097
711.000000	0.034816
710.000000	0.034605
709.000000	0.034397
708.000000	0.034196
707.000000	0.034004
706.000000	0.033793
705.000000	0.033557
704.000000	0.033413
703.000000	0.033364
702.000000	0.033272
701.000000	0.033126
700.000000	0.033040
699.000000	0.032948
698.000000	0.032799
697.000000	0.032733
696.000000	0.032752
695.000000	0.032745
694.000000	0.032696
693.000000	0.032661
692.000000	0.032788
691.000000	0.032925
690.000000	0.032946
689.000000	0.033080
688.000000	0.033235
687.000000	0.033203
686.000000	0.033354
685.000000	0.033436
684.000000	0.033383
683.000000	0.033443
682.000000	0.033668
681.000000	0.033795
680.000000	0.033804
679.000000	0.033856
678.000000	0.033993
677.000000	0.034072
676.000000	0.034188
675.000000	0.034292
674.000000	0.034386
673.000000	0.034299
672.000000	0.034300
671.000000	0.034344
670.000000	0.034468
669.000000	0.034394
668.000000	0.034378
667.000000	0.034276
666.000000	0.034203
665.000000	0.034114
664.000000	0.034148
663.000000	0.034060
662.000000	0.033977
661.000000	0.033905
660.000000	0.033838
659.000000	0.033727
658.000000	0.033656
657.000000	0.033560
656.000000	0.033528
655.000000	0.033435
654.000000	0.033367
653.000000	0.033247
652.000000	0.033322
651.000000	0.033227
650.000000	0.033242
649.000000	0.033232
648.000000	0.033127
647.000000	0.033122
646.000000	0.033131
645.000000	0.033176
644.000000	0.033162
643.000000	0.033088
642.000000	0.033150
641.000000	0.033082
640.000000	0.033099
639.000000	0.033036
638.000000	0.033089
637.000000	0.033034
636.000000	0.032972
635.000000	0.033128
634.000000	0.033178
633.000000	0.033086
632.000000	0.033148
631.000000	0.033103
630.000000	0.033125
629.000000	0.033244
628.000000	0.033369
627.000000	0.033361
626.000000	0.033359
625.000000	0.033278
624.000000	0.033363
623.000000	0.033440
622.000000	0.033648
621.000000	0.033587
620.000000	0.033729
619.000000	0.033729
618.000000	0.033803
617.000000	0.033836
616.000000	0.033964
615.000000	0.034025
614.000000	0.034039
613.000000	0.034121
612.000000	0.034149
611.000000	0.034138
610.000000	0.034245
609.000000	0.034232
608.000000	0.034304
607.000000	0.034200
606.000000	0.034168
605.000000	0.034225
604.000000	0.034294
603.000000	0.034145
602.000000	0.034222
601.000000	0.034162
600.000000	0.034079
599.000000	0.034060
598.000000	0.034001
597.000000	0.034098
596.000000	0.033957
595.000000	0.033908
594.000000	0.033853
593.000000	0.033835
592.000000	0.033724
591.000000	0.033726
590.000000	0.033654
589.000000	0.033670
588.000000	0.033431
587.000000	0.033464
586.000000	0.033454
585.000000	0.033471
584.000000	0.033377
583.000000	0.033353
582.000000	0.033294
581.000000	0.033220
580.000000	0.033292
579.000000	0.033291
578.000000	0.033187
577.000000	0.033221
576.000000	0.033237
575.000000	0.033183
574.000000	0.033211
573.000000	0.033260
572.000000	0.033319
571.000000	0.033361
570.000000	0.033305
569.000000	0.033332
568.000000	0.033440
567.000000	0.033568
566.000000	0.033546
565.000000	0.033638
564.000000	0.033696
563.000000	0.033675
562.000000	0.033736
561.000000	0.033719
560.000000	0.033794
559.000000	0.033809
558.000000	0.033890
557.000000	0.033917
556.000000	0.033975
555.000000	0.034019
554.000000	0.034162
553.000000	0.034114
552.000000	0.034211
551.000000	0.034207
550.000000	0.034173
549.000000	0.034267
548.000000	0.034311
547.000000	0.034208
546.000000	0.034375
545.000000	0.034358
544.000000	0.034407
543.000000	0.034431
542.000000	0.034502
541.000000	0.034491
540.000000	0.034570
539.000000	0.034562
538.000000	0.034589
537.000000	0.034636
536.000000	0.034730
535.000000	0.034770
534.000000	0.034837
533.000000	0.034837
532.000000	0.034824
531.000000	0.034933
530.000000	0.034979
529.000000	0.035027
528.000000	0.035068
527.000000	0.035030
526.000000	0.035079
525.000000	0.035102
524.000000	0.035115
523.000000	0.035044
522.000000	0.035101
521.000000	0.035115
520.000000	0.035168
519.000000	0.035164
518.000000	0.035108
517.000000	0.035091
516.000000	0.035141
515.000000	0.035105
514.000000	0.035125
513.000000	0.035092
512.000000	0.035029
511.000000	0.034961
510.000000	0.034958
509.000000	0.034916
508.000000	0.034853
507.000000	0.034849
506.000000	0.034849
505.000000	0.034772
504.000000	0.034740
503.000000	0.034639
502.000000	0.034588
501.000000	0.034568
500.000000	0.034497
499.000000	0.034433
498.000000	0.034351
497.000000	0.034257
496.000000	0.034227
495.000000	0.034225
494.000000	0.034075
493.000000	0.034073
492.000000	0.034134
491.000000	0.034075
490.000000	0.034039
489.000000	0.034056
488.000000	0.034021
487.000000	0.034067
486.000000	0.034062
485.000000	0.034016
484.000000	0.034083
483.000000	0.034177
482.000000	0.034051
481.000000	0.034094
480.000000	0.034178
479.000000	0.034102
478.000000	0.034086
477.000000	0.034174
476.000000	0.034197
475.000000	0.034195
474.000000	0.034236
473.000000	0.034266
472.000000	0.034291
471.000000	0.034402
470.000000	0.034316
469.000000	0.034470
468.000000	0.034482
467.000000	0.034410
466.000000	0.034481
465.000000	0.034652
464.000000	0.034493
463.000000	0.034571
462.000000	0.034662
461.000000	0.034667
460.000000	0.034680
459.000000	0.034849
458.000000	0.034769
457.000000	0.034817
456.000000	0.034836
455.000000	0.034974
454.000000	0.034977
453.000000	0.035039
452.000000	0.035023
451.000000	0.035141
450.000000	0.035184
449.000000	0.035230
448.000000	0.035229
447.000000	0.035435
446.000000	0.035315
445.000000	0.035474
444.000000	0.035528
443.000000	0.035524
442.000000	0.035573
441.000000	0.035694
440.000000	0.035659
439.000000	0.035836
438.000000	0.035719
437.000000	0.035798
436.000000	0.035958
435.000000	0.036077
434.000000	0.035976
433.000000	0.036115
432.000000	0.036087
431.000000	0.036072
430.000000	0.036112
429.000000	0.036298
428.000000	0.036207
427.000000	0.036285
426.000000	0.036347
425.000000	0.036328
424.000000	0.036394
423.000000	0.036565
422.000000	0.036498
421.000000	0.036617
420.000000	0.036578
419.000000	0.036571
418.000000	0.036546
417.000000	0.036703
416.000000	0.036655
415.000000	0.036880
414.000000	0.036739
413.000000	0.036711
412.000000	0.036737
411.000000	0.036935
410.000000	0.036778
409.000000	0.036847
408.000000	0.036758
407.000000	0.036958
406.000000	0.036902
405.000000	0.036951
404.000000	0.036756
403.000000	0.037063
402.000000	0.036901
401.000000	0.036871
400.000000	0.036963
399.000000	0.037147
398.000000	0.036647
397.000000	0.037012
396.000000	0.037055
395.000000	0.037003
394.000000	0.036975
393.000000	0.037191
392.000000	0.036995
391.000000	0.037085
390.000000	0.036981
389.000000	0.037138
388.000000	0.037208
387.000000	0.037138
386.000000	0.036999
385.000000	0.037229
384.000000	0.037181
383.000000	0.037112
382.000000	0.037196
381.000000	0.037399
380.000000	0.037083
379.000000	0.037256
378.000000	0.037185
377.000000	0.036777
376.000000	0.036674
375.000000	0.036884
374.000000	0.037026
373.000000	0.037097
372.000000	0.037104
371.000000	0.037320
370.000000	0.037326
369.000000	0.037286
368.000000	0.037411
367.000000	0.037532
366.000000	0.037643
365.000000	0.037699
364.000000	0.037715
363.000000	0.037860
362.000000	0.037823
361.000000	0.037839
360.000000	0.038038
359.000000	0.038107
358.000000	0.037954
357.000000	0.038276
356.000000	0.038446
355.000000	0.038339
354.000000	0.038320
353.000000	0.038548
352.000000	0.038463
351.000000	0.038787
350.000000	0.038652
349.000000	0.038792
348.000000	0.038869
347.000000	0.038912
346.000000	0.038876
345.000000	0.039132
344.000000	0.039030
343.000000	0.039048
342.000000	0.039277
341.000000	0.039400
340.000000	0.039274
339.000000	0.039485
338.000000	0.039669
337.000000	0.039595
336.000000	0.039696
335.000000	0.039857
334.000000	0.039851
333.000000	0.039958
332.000000	0.039937
331.000000	0.040111
330.000000	0.040179
329.000000	0.040124
328.000000	0.040150
327.000000	0.040390
326.000000	0.040358
325.000000	0.040377
324.000000	0.040517
323.000000	0.040527
322.000000	0.040536
321.000000	0.040742
320.000000	0.040853
319.000000	0.040950
318.000000	0.040806
317.000000	0.040612
316.000000	0.040576
315.000000	0.040681
314.000000	0.040883
313.000000	0.040943
312.000000	0.040923
311.000000	0.041124
310.000000	0.041278
309.000000	0.041274
308.000000	0.041444
307.000000	0.041624
306.000000	0.041737
305.000000	0.041727
304.000000	0.041800
303.000000	0.042058
302.000000	0.042132
301.000000	0.042058
300.000000	0.042253
299.000000	0.042372
298.000000	0.042305
297.000000	0.042518
296.000000	0.042852
295.000000	0.042940
294.000000	0.042931
293.000000	0.043157
292.000000	0.043289
291.000000	0.043341
290.000000	0.043517
289.000000	0.043721
288.000000	0.043833
287.000000	0.043932
286.000000	0.044061
285.000000	0.044396
284.000000	0.044552
283.000000	0.044491
282.000000	0.044668
281.000000	0.045006
280.000000	0.044977
279.000000	0.045024
278.000000	0.045311
277.000000	0.045384
276.000000	0.045371
275.000000	0.045627
274.000000	0.045797
273.000000	0.045910
272.000000	0.045936
271.000000	0.046137
270.000000	0.046418
269.000000	0.046557
268.000000	0.046611
267.000000	0.046860
266.000000	0.046963
265.000000	0.046983
264.000000	0.047237
263.000000	0.047479
262.000000	0.047360
261.000000	0.047611
260.000000	0.047863
259.000000	0.048054
258.000000	0.048211
257.000000	0.048408
256.000000	0.048555
255.000000	0.048832
254.000000	0.048881
253.000000	0.049174
252.000000	0.049485
251.000000	0.049683
250.000000	0.049746
249.000000	0.050136
248.000000	0.050579
247.000000	0.050821
246.000000	0.051056
245.000000	0.051568
244.000000	0.051659
243.000000	0.051949
242.000000	0.052359
241.000000	0.052893
240.000000	0.053218
239.000000	0.053553
238.000000	0.054005
237.000000	0.054470
236.000000	0.054804
235.000000	0.055264
234.000000	0.055997
233.000000	0.056380
232.000000	0.056582
231.000000	0.057294
230.000000	0.057953
229.000000	0.058370
228.000000	0.058873
227.000000	0.059504
226.000000	0.059806
225.000000	0.060490
224.000000	0.060973
223.000000	0.061574
222.000000	0.062104
221.000000	0.062785
220.000000	0.063485
219.000000	0.064515
218.000000	0.065108
217.000000	0.065956
216.000000	0.067117
215.000000	0.068504
214.000000	0.069240
213.000000	0.070739
212.000000	0.072447
211.000000	0.073794
210.000000	0.075436
209.000000	0.077331
208.000000	0.079229
207.000000	0.081640
206.000000	0.083860
205.000000	0.086660
204.000000	0.089421
203.000000	0.092627
202.000000	0.095989
201.000000	0.099652
200.000000	0.103581
