PE UV       SUBTECH     SPECTRUM    ASCII       PEDS        4.00        	
-1	
KY203A180810.Sample.Raw.asc	
10.9.2002	
13:26:30.00	
10.9.2002	
13:26:30.00	
Hermanni Kaartokallio	
	
200.000000	
1	
Lambda 650	
650N8121101	
PerkinElmer UV WinLab 6.0.2.0723 / 1.61.00 Lambda 650	
	
0	
0	
2	
0	
0	
UV/VIS	
1	
1	
1	
uv/vis/nir detector	
0	
0	
0	
0	
Fix	
 	
0	
0.24	
0	
0	
0	
 	
 	
 	
0	
 	
0	
319.2	
0	
Front	
100	
 	
 	
 	
0	
0	
0	
 	
0	
 	
 	
 	
0	
 	
 	
0	
0	
0	
0	
0	
 	
 	
 	
 	
0	
0	
#HDR	
-1	
-1	
#GR	
nm	
A	
1.0	
0.0	
800.000000	
-1.000000	
601	
8	
3.546346	
0.037780	
#DATA	
800.000000	0.078754
799.000000	0.079177
798.000000	0.079541
797.000000	0.079882
796.000000	0.080295
795.000000	0.080759
794.000000	0.081083
793.000000	0.081549
792.000000	0.081971
791.000000	0.082434
790.000000	0.082751
789.000000	0.083358
788.000000	0.083650
787.000000	0.084027
786.000000	0.084432
785.000000	0.085073
784.000000	0.085385
783.000000	0.085628
782.000000	0.086052
781.000000	0.086550
780.000000	0.086607
779.000000	0.086804
778.000000	0.087204
777.000000	0.087483
776.000000	0.087645
775.000000	0.087904
774.000000	0.088060
773.000000	0.088347
772.000000	0.088260
771.000000	0.088717
770.000000	0.088818
769.000000	0.088849
768.000000	0.088835
767.000000	0.089129
766.000000	0.089231
765.000000	0.089161
764.000000	0.089230
763.000000	0.089295
762.000000	0.089067
761.000000	0.089060
760.000000	0.089232
759.000000	0.089293
758.000000	0.089076
757.000000	0.088900
756.000000	0.088976
755.000000	0.089029
754.000000	0.088923
753.000000	0.088883
752.000000	0.089012
751.000000	0.088907
750.000000	0.088711
749.000000	0.088854
748.000000	0.088895
747.000000	0.088751
746.000000	0.088719
745.000000	0.088715
744.000000	0.088610
743.000000	0.088484
742.000000	0.088294
741.000000	0.088006
740.000000	0.087546
739.000000	0.086940
738.000000	0.086179
737.000000	0.085138
736.000000	0.083614
735.000000	0.081936
734.000000	0.080056
733.000000	0.077727
732.000000	0.075361
731.000000	0.073043
730.000000	0.070569
729.000000	0.067998
728.000000	0.065832
727.000000	0.064064
726.000000	0.062393
725.000000	0.060941
724.000000	0.059603
723.000000	0.058357
722.000000	0.057074
721.000000	0.055858
720.000000	0.054855
719.000000	0.053777
718.000000	0.052572
717.000000	0.051538
716.000000	0.050617
715.000000	0.049548
714.000000	0.048595
713.000000	0.047781
712.000000	0.046962
711.000000	0.046099
710.000000	0.045390
709.000000	0.044838
708.000000	0.044292
707.000000	0.043788
706.000000	0.043328
705.000000	0.042876
704.000000	0.042434
703.000000	0.042032
702.000000	0.041784
701.000000	0.041509
700.000000	0.040937
699.000000	0.040720
698.000000	0.040686
697.000000	0.040293
696.000000	0.039996
695.000000	0.039852
694.000000	0.039725
693.000000	0.039555
692.000000	0.039381
691.000000	0.039352
690.000000	0.039286
689.000000	0.039237
688.000000	0.039236
687.000000	0.039226
686.000000	0.039206
685.000000	0.039248
684.000000	0.039319
683.000000	0.039388
682.000000	0.039361
681.000000	0.039502
680.000000	0.039656
679.000000	0.039629
678.000000	0.039685
677.000000	0.039856
676.000000	0.039811
675.000000	0.039833
674.000000	0.039963
673.000000	0.040051
672.000000	0.040083
671.000000	0.040052
670.000000	0.040154
669.000000	0.040305
668.000000	0.040218
667.000000	0.040235
666.000000	0.040363
665.000000	0.040346
664.000000	0.040232
663.000000	0.040372
662.000000	0.040471
661.000000	0.040364
660.000000	0.040338
659.000000	0.040398
658.000000	0.040263
657.000000	0.040091
656.000000	0.039960
655.000000	0.039868
654.000000	0.039697
653.000000	0.039542
652.000000	0.039542
651.000000	0.039504
650.000000	0.039429
649.000000	0.039408
648.000000	0.039395
647.000000	0.039381
646.000000	0.039165
645.000000	0.039231
644.000000	0.039254
643.000000	0.039172
642.000000	0.039100
641.000000	0.039150
640.000000	0.039124
639.000000	0.039062
638.000000	0.039044
637.000000	0.039102
636.000000	0.039062
635.000000	0.039022
634.000000	0.039113
633.000000	0.039095
632.000000	0.038844
631.000000	0.038912
630.000000	0.038878
629.000000	0.038960
628.000000	0.038900
627.000000	0.038827
626.000000	0.039047
625.000000	0.038988
624.000000	0.038917
623.000000	0.039026
622.000000	0.038962
621.000000	0.039109
620.000000	0.039019
619.000000	0.039182
618.000000	0.039158
617.000000	0.039167
616.000000	0.039171
615.000000	0.039373
614.000000	0.039294
613.000000	0.039269
612.000000	0.039463
611.000000	0.039493
610.000000	0.039418
609.000000	0.039583
608.000000	0.039613
607.000000	0.039663
606.000000	0.039575
605.000000	0.039975
604.000000	0.039741
603.000000	0.039754
602.000000	0.039643
601.000000	0.039545
600.000000	0.039423
599.000000	0.039137
598.000000	0.038935
597.000000	0.038850
596.000000	0.038664
595.000000	0.038396
594.000000	0.038387
593.000000	0.038382
592.000000	0.038219
591.000000	0.038163
590.000000	0.038346
589.000000	0.038275
588.000000	0.038249
587.000000	0.038205
586.000000	0.038271
585.000000	0.038126
584.000000	0.038249
583.000000	0.037780
582.000000	0.038841
581.000000	0.038235
580.000000	0.038257
579.000000	0.038358
578.000000	0.038653
577.000000	0.038317
576.000000	0.038502
575.000000	0.038678
574.000000	0.038688
573.000000	0.038772
572.000000	0.038962
571.000000	0.038896
570.000000	0.038963
569.000000	0.039065
568.000000	0.039141
567.000000	0.039330
566.000000	0.039441
565.000000	0.039582
564.000000	0.039760
563.000000	0.039859
562.000000	0.040032
561.000000	0.040022
560.000000	0.040102
559.000000	0.040381
558.000000	0.040501
557.000000	0.040139
556.000000	0.038975
555.000000	0.041219
554.000000	0.041107
553.000000	0.041332
552.000000	0.041410
551.000000	0.041605
550.000000	0.041778
549.000000	0.041831
548.000000	0.042015
547.000000	0.042276
546.000000	0.042322
545.000000	0.042405
544.000000	0.042634
543.000000	0.042788
542.000000	0.042879
541.000000	0.043022
540.000000	0.043153
539.000000	0.043301
538.000000	0.043468
537.000000	0.043560
536.000000	0.043685
535.000000	0.043920
534.000000	0.044017
533.000000	0.044150
532.000000	0.044327
531.000000	0.044434
530.000000	0.044541
529.000000	0.044752
528.000000	0.044905
527.000000	0.044986
526.000000	0.045173
525.000000	0.045353
524.000000	0.045492
523.000000	0.045622
522.000000	0.045683
521.000000	0.045985
520.000000	0.046158
519.000000	0.046289
518.000000	0.046467
517.000000	0.046632
516.000000	0.046693
515.000000	0.046866
514.000000	0.047115
513.000000	0.047218
512.000000	0.047335
511.000000	0.047511
510.000000	0.047622
509.000000	0.047724
508.000000	0.047902
507.000000	0.048035
506.000000	0.048141
505.000000	0.048325
504.000000	0.048501
503.000000	0.048702
502.000000	0.048888
501.000000	0.049608
500.000000	0.049786
499.000000	0.049437
498.000000	0.049623
497.000000	0.049813
496.000000	0.050029
495.000000	0.050150
494.000000	0.050351
493.000000	0.050647
492.000000	0.050833
491.000000	0.051006
490.000000	0.051233
489.000000	0.051404
488.000000	0.051625
487.000000	0.051880
486.000000	0.052067
485.000000	0.052266
484.000000	0.052465
483.000000	0.052633
482.000000	0.052898
481.000000	0.053161
480.000000	0.053422
479.000000	0.053691
478.000000	0.053934
477.000000	0.054114
476.000000	0.054417
475.000000	0.055051
474.000000	0.055257
473.000000	0.055445
472.000000	0.055768
471.000000	0.056055
470.000000	0.056494
469.000000	0.056813
468.000000	0.057229
467.000000	0.057635
466.000000	0.057892
465.000000	0.058212
464.000000	0.058659
463.000000	0.059062
462.000000	0.059444
461.000000	0.059825
460.000000	0.060295
459.000000	0.060674
458.000000	0.061196
457.000000	0.061663
456.000000	0.062046
455.000000	0.062547
454.000000	0.063003
453.000000	0.063438
452.000000	0.063977
451.000000	0.064482
450.000000	0.064968
449.000000	0.065499
448.000000	0.066030
447.000000	0.066560
446.000000	0.067171
445.000000	0.067827
444.000000	0.068452
443.000000	0.068986
442.000000	0.069544
441.000000	0.070138
440.000000	0.070881
439.000000	0.071564
438.000000	0.072269
437.000000	0.072978
436.000000	0.073658
435.000000	0.074276
434.000000	0.075101
433.000000	0.075856
432.000000	0.076603
431.000000	0.077342
430.000000	0.078131
429.000000	0.078819
428.000000	0.079649
427.000000	0.080375
426.000000	0.081280
425.000000	0.082158
424.000000	0.083097
423.000000	0.083872
422.000000	0.084810
421.000000	0.085719
420.000000	0.086534
419.000000	0.087572
418.000000	0.088570
417.000000	0.089515
416.000000	0.090595
415.000000	0.091589
414.000000	0.092654
413.000000	0.093500
412.000000	0.094585
411.000000	0.095642
410.000000	0.096890
409.000000	0.097989
408.000000	0.099171
407.000000	0.100360
406.000000	0.102760
405.000000	0.102680
404.000000	0.103946
403.000000	0.105294
402.000000	0.106514
401.000000	0.107809
400.000000	0.109183
399.000000	0.110633
398.000000	0.112042
397.000000	0.113447
396.000000	0.114892
395.000000	0.116361
394.000000	0.117872
393.000000	0.119364
392.000000	0.121016
391.000000	0.122554
390.000000	0.124268
389.000000	0.126018
388.000000	0.127750
387.000000	0.129284
386.000000	0.131112
385.000000	0.132952
384.000000	0.134613
383.000000	0.136514
382.000000	0.138507
381.000000	0.140421
380.000000	0.142394
379.000000	0.144415
378.000000	0.146607
377.000000	0.148621
376.000000	0.150846
375.000000	0.153039
374.000000	0.155129
373.000000	0.157471
372.000000	0.159672
371.000000	0.161979
370.000000	0.164387
369.000000	0.166949
368.000000	0.169493
367.000000	0.171877
366.000000	0.174359
365.000000	0.176924
364.000000	0.179637
363.000000	0.182344
362.000000	0.185094
361.000000	0.187855
360.000000	0.190683
359.000000	0.193450
358.000000	0.196544
357.000000	0.199481
356.000000	0.202491
355.000000	0.205506
354.000000	0.208706
353.000000	0.211869
352.000000	0.215129
351.000000	0.218409
350.000000	0.221760
349.000000	0.225070
348.000000	0.228375
347.000000	0.231891
346.000000	0.235567
345.000000	0.239056
344.000000	0.242628
343.000000	0.246434
342.000000	0.250110
341.000000	0.253942
340.000000	0.257973
339.000000	0.261853
338.000000	0.265742
337.000000	0.269785
336.000000	0.274114
335.000000	0.278481
334.000000	0.282913
333.000000	0.287444
332.000000	0.292070
331.000000	0.296727
330.000000	0.301317
329.000000	0.306104
328.000000	0.311072
327.000000	0.315954
326.000000	0.321067
325.000000	0.326278
324.000000	0.331578
323.000000	0.336914
322.000000	0.342332
321.000000	0.348077
320.000000	0.353630
319.000000	0.359323
318.000000	0.365094
317.000000	0.370890
316.000000	0.377000
315.000000	0.383261
314.000000	0.389577
313.000000	0.396063
312.000000	0.402738
311.000000	0.409492
310.000000	0.416280
309.000000	0.423160
308.000000	0.430261
307.000000	0.437528
306.000000	0.444851
305.000000	0.452439
304.000000	0.460261
303.000000	0.468173
302.000000	0.476111
301.000000	0.484301
300.000000	0.492791
299.000000	0.501314
298.000000	0.510030
297.000000	0.519150
296.000000	0.528377
295.000000	0.537748
294.000000	0.547553
293.000000	0.557525
292.000000	0.567456
291.000000	0.577829
290.000000	0.588679
289.000000	0.599509
288.000000	0.610385
287.000000	0.621461
286.000000	0.632820
285.000000	0.644216
284.000000	0.655604
283.000000	0.667318
282.000000	0.678908
281.000000	0.690363
280.000000	0.702040
279.000000	0.713986
278.000000	0.725767
277.000000	0.737635
276.000000	0.749849
275.000000	0.761990
274.000000	0.774055
273.000000	0.786304
272.000000	0.798525
271.000000	0.810551
270.000000	0.822397
269.000000	0.834117
268.000000	0.845835
267.000000	0.857216
266.000000	0.868276
265.000000	0.879060
264.000000	0.889709
263.000000	0.900013
262.000000	0.909889
261.000000	0.919862
260.000000	0.929193
259.000000	0.937974
258.000000	0.946826
257.000000	0.955147
256.000000	0.963380
255.000000	0.971548
254.000000	0.979747
253.000000	0.988021
252.000000	0.995923
251.000000	1.003934
250.000000	1.012241
249.000000	1.021111
248.000000	1.030084
247.000000	1.039595
246.000000	1.049781
245.000000	1.060315
244.000000	1.071692
243.000000	1.084122
242.000000	1.097005
241.000000	1.110380
240.000000	1.124792
239.000000	1.139877
238.000000	1.155347
237.000000	1.171759
236.000000	1.188961
235.000000	1.207207
234.000000	1.226171
233.000000	1.245844
232.000000	1.265813
231.000000	1.286452
230.000000	1.306956
229.000000	1.327811
228.000000	1.349569
227.000000	1.370579
226.000000	1.392922
225.000000	1.416256
224.000000	1.440862
223.000000	1.466234
222.000000	1.494562
221.000000	1.525036
220.000000	1.558672
219.000000	1.597619
218.000000	1.642654
217.000000	1.694861
216.000000	1.755691
215.000000	1.827756
214.000000	1.913492
213.000000	2.017744
212.000000	2.138120
211.000000	2.281029
210.000000	2.448574
209.000000	2.629874
208.000000	2.826980
207.000000	3.070280
206.000000	3.290763
205.000000	3.468044
204.000000	3.546346
203.000000	3.540693
202.000000	3.489294
201.000000	3.472429
200.000000	3.491460
