PE UV       SUBTECH     SPECTRUM    ASCII       PEDS        4.00        
   -1
MQ_1CM_CELL.Sample.Raw.asc
10/09/02
14:28:23.00
10/09/02
14:28:23.00
Hermanni Kaartokallio

200.000000
1
Lambda 650
650N8121101
PerkinElmer UV WinLab 6.0.2.0723 / 1.61.00 Lambda 650

0
0
2
0
0
UV/VIS
1
1
1
uv/vis/nir detector
0
0
0
0
Fix
 
0
0.24
0
0
0
 
 
 
0
 
0
319.2
0
Front
100
 
 
 
0
0
0
 
0
 
 
 
0
 
 
0
0
0
0
0
 
 
 
 
0
0
#HDR
-1
-1
#GR
nm
A
1.0
0.0
800.000000
-1.000000
601
8
0.043923
0.000000
#DATA
800.000000	0.041928
799.000000	0.042093
798.000000	0.042154
797.000000	0.042201
796.000000	0.042391
795.000000	0.042662
794.000000	0.042535
793.000000	0.042550
792.000000	0.042765
791.000000	0.042834
790.000000	0.042816
789.000000	0.043202
788.000000	0.043067
787.000000	0.043146
786.000000	0.043129
785.000000	0.043419
784.000000	0.043530
783.000000	0.043478
782.000000	0.043485
781.000000	0.043670
780.000000	0.043543
779.000000	0.043540
778.000000	0.043674
777.000000	0.043923
776.000000	0.043791
775.000000	0.043798
774.000000	0.043707
773.000000	0.043715
772.000000	0.043591
771.000000	0.043868
770.000000	0.043912
769.000000	0.043715
768.000000	0.043500
767.000000	0.043638
766.000000	0.043781
765.000000	0.043764
764.000000	0.043607
763.000000	0.043637
762.000000	0.043392
761.000000	0.043326
760.000000	0.043439
759.000000	0.043517
758.000000	0.043352
757.000000	0.043241
756.000000	0.043216
755.000000	0.043363
754.000000	0.043377
753.000000	0.043423
752.000000	0.043417
751.000000	0.043412
750.000000	0.043240
749.000000	0.043409
748.000000	0.043625
747.000000	0.043618
746.000000	0.043474
745.000000	0.043449
744.000000	0.043408
743.000000	0.043401
742.000000	0.043506
741.000000	0.043553
740.000000	0.043375
739.000000	0.043116
738.000000	0.042951
737.000000	0.042840
736.000000	0.042538
735.000000	0.042142
734.000000	0.041680
733.000000	0.041117
732.000000	0.040496
731.000000	0.040107
730.000000	0.039753
729.000000	0.039190
728.000000	0.038570
727.000000	0.038194
726.000000	0.037843
725.000000	0.037540
724.000000	0.037353
723.000000	0.037215
722.000000	0.036876
721.000000	0.036498
720.000000	0.036240
719.000000	0.036156
718.000000	0.036010
717.000000	0.035759
716.000000	0.035483
715.000000	0.035172
714.000000	0.034774
713.000000	0.034528
712.000000	0.034370
711.000000	0.034132
710.000000	0.033933
709.000000	0.033739
708.000000	0.033589
707.000000	0.033564
706.000000	0.033373
705.000000	0.033241
704.000000	0.033178
703.000000	0.033057
702.000000	0.033024
701.000000	0.032983
700.000000	0.032652
699.000000	0.032481
698.000000	0.032569
697.000000	0.032417
696.000000	0.032280
695.000000	0.032287
694.000000	0.032279
693.000000	0.032181
692.000000	0.032127
691.000000	0.032151
690.000000	0.032145
689.000000	0.032181
688.000000	0.032278
687.000000	0.032340
686.000000	0.032365
685.000000	0.032388
684.000000	0.032446
683.000000	0.032559
682.000000	0.032593
681.000000	0.032649
680.000000	0.032817
679.000000	0.032861
678.000000	0.032935
677.000000	0.033025
676.000000	0.033070
675.000000	0.033061
674.000000	0.033110
673.000000	0.033160
672.000000	0.033204
671.000000	0.033187
670.000000	0.033224
669.000000	0.033327
668.000000	0.033255
667.000000	0.033178
666.000000	0.033278
665.000000	0.033267
664.000000	0.033141
663.000000	0.033137
662.000000	0.033186
661.000000	0.033192
660.000000	0.033233
659.000000	0.033263
658.000000	0.033275
657.000000	0.033164
656.000000	0.033108
655.000000	0.033153
654.000000	0.033252
653.000000	0.033256
652.000000	0.033127
651.000000	0.033225
650.000000	0.033248
649.000000	0.033230
648.000000	0.033219
647.000000	0.033407
646.000000	0.033388
645.000000	0.033213
644.000000	0.033347
643.000000	0.033415
642.000000	0.033388
641.000000	0.033601
640.000000	0.033615
639.000000	0.033419
638.000000	0.033530
637.000000	0.033627
636.000000	0.033612
635.000000	0.033812
634.000000	0.033793
633.000000	0.033640
632.000000	0.033591
631.000000	0.033743
630.000000	0.033596
629.000000	0.033938
628.000000	0.033894
627.000000	0.033552
626.000000	0.033773
625.000000	0.033843
624.000000	0.033801
623.000000	0.034025
622.000000	0.033865
621.000000	0.033930
620.000000	0.033976
619.000000	0.034050
618.000000	0.034063
617.000000	0.034295
616.000000	0.034150
615.000000	0.034100
614.000000	0.034187
613.000000	0.034124
612.000000	0.034214
611.000000	0.034364
610.000000	0.034396
609.000000	0.034213
608.000000	0.034351
607.000000	0.034300
606.000000	0.034365
605.000000	0.034823
604.000000	0.034441
603.000000	0.034289
602.000000	0.034313
601.000000	0.034266
600.000000	0.034298
599.000000	0.034355
598.000000	0.034079
597.000000	0.033901
596.000000	0.033809
595.000000	0.033802
594.000000	0.033755
593.000000	0.033880
592.000000	0.033720
591.000000	0.033420
590.000000	0.033436
589.000000	0.033550
588.000000	0.033477
587.000000	0.033551
586.000000	0.033515
585.000000	0.033285
584.000000	0.033189
583.000000	0.032736
582.000000	0.033769
581.000000	0.033457
580.000000	0.033317
579.000000	0.033116
578.000000	0.033194
577.000000	0.033106
576.000000	0.033232
575.000000	0.033491
574.000000	0.033368
573.000000	0.033235
572.000000	0.033270
571.000000	0.033269
570.000000	0.033368
569.000000	0.033558
568.000000	0.033201
567.000000	0.033309
566.000000	0.033390
565.000000	0.033542
564.000000	0.033711
563.000000	0.033928
562.000000	0.033963
561.000000	0.033756
560.000000	0.033870
559.000000	0.033946
558.000000	0.033886
557.000000	0.033482
556.000000	0.032268
555.000000	0.034472
554.000000	0.034291
553.000000	0.034300
552.000000	0.034349
551.000000	0.034370
550.000000	0.034375
549.000000	0.034536
548.000000	0.034654
547.000000	0.034662
546.000000	0.034595
545.000000	0.034648
544.000000	0.034710
543.000000	0.034780
542.000000	0.034877
541.000000	0.034860
540.000000	0.034856
539.000000	0.034866
538.000000	0.034913
537.000000	0.035007
536.000000	0.035039
535.000000	0.035031
534.000000	0.035075
533.000000	0.035089
532.000000	0.035079
531.000000	0.035118
530.000000	0.035162
529.000000	0.035018
528.000000	0.035077
527.000000	0.000000
526.000000	0.000000
525.000000	0.000000
524.000000	0.000000
523.000000	0.000000
522.000000	0.000000
521.000000	0.000000
520.000000	0.000000
519.000000	0.000000
518.000000	0.000000
517.000000	0.000000
516.000000	0.000000
515.000000	0.000000
514.000000	0.000000
513.000000	0.000000
512.000000	0.000000
511.000000	0.000000
510.000000	0.000000
509.000000	0.000000
508.000000	0.000000
507.000000	0.000000
506.000000	0.000000
505.000000	0.000000
504.000000	0.000000
503.000000	0.000000
502.000000	0.000000
501.000000	0.000000
500.000000	0.000000
499.000000	0.000000
498.000000	0.000000
497.000000	0.000000
496.000000	0.000000
495.000000	0.000000
494.000000	0.000000
493.000000	0.000000
492.000000	0.000000
491.000000	0.000000
490.000000	0.000000
489.000000	0.000000
488.000000	0.000000
487.000000	0.000000
486.000000	0.000000
485.000000	0.000000
484.000000	0.000000
483.000000	0.000000
482.000000	0.000000
481.000000	0.000000
480.000000	0.000000
479.000000	0.000000
478.000000	0.000000
477.000000	0.000000
476.000000	0.000000
475.000000	0.000000
474.000000	0.000000
473.000000	0.000000
472.000000	0.000000
471.000000	0.000000
470.000000	0.000000
469.000000	0.000000
468.000000	0.000000
467.000000	0.000000
466.000000	0.000000
465.000000	0.000000
464.000000	0.000000
463.000000	0.000000
462.000000	0.000000
461.000000	0.000000
460.000000	0.000000
459.000000	0.000000
458.000000	0.000000
457.000000	0.000000
456.000000	0.000000
455.000000	0.000000
454.000000	0.000000
453.000000	0.000000
452.000000	0.000000
451.000000	0.000000
450.000000	0.000000
449.000000	0.000000
448.000000	0.000000
447.000000	0.000000
446.000000	0.000000
445.000000	0.000000
444.000000	0.000000
443.000000	0.000000
442.000000	0.000000
441.000000	0.000000
440.000000	0.000000
439.000000	0.000000
438.000000	0.000000
437.000000	0.000000
436.000000	0.000000
435.000000	0.000000
434.000000	0.000000
433.000000	0.000000
432.000000	0.000000
431.000000	0.000000
430.000000	0.000000
429.000000	0.000000
428.000000	0.000000
427.000000	0.000000
426.000000	0.000000
425.000000	0.000000
424.000000	0.000000
423.000000	0.000000
422.000000	0.000000
421.000000	0.000000
420.000000	0.000000
419.000000	0.000000
418.000000	0.000000
417.000000	0.000000
416.000000	0.000000
415.000000	0.000000
414.000000	0.000000
413.000000	0.000000
412.000000	0.000000
411.000000	0.000000
410.000000	0.000000
409.000000	0.000000
408.000000	0.000000
407.000000	0.000000
406.000000	0.000000
405.000000	0.000000
404.000000	0.000000
403.000000	0.000000
402.000000	0.000000
401.000000	0.000000
400.000000	0.000000
399.000000	0.000000
398.000000	0.000000
397.000000	0.000000
396.000000	0.000000
395.000000	0.000000
394.000000	0.000000
393.000000	0.000000
392.000000	0.000000
391.000000	0.000000
390.000000	0.000000
389.000000	0.000000
388.000000	0.000000
387.000000	0.000000
386.000000	0.000000
385.000000	0.000000
384.000000	0.000000
383.000000	0.000000
382.000000	0.000000
381.000000	0.000000
380.000000	0.000000
379.000000	0.000000
378.000000	0.000000
377.000000	0.000000
376.000000	0.000000
375.000000	0.000000
374.000000	0.000000
373.000000	0.000000
372.000000	0.000000
371.000000	0.000000
370.000000	0.000000
369.000000	0.000000
368.000000	0.000000
367.000000	0.000000
366.000000	0.000000
365.000000	0.000000
364.000000	0.000000
363.000000	0.000000
362.000000	0.000000
361.000000	0.000000
360.000000	0.000000
359.000000	0.000000
358.000000	0.000000
357.000000	0.000000
356.000000	0.000000
355.000000	0.000000
354.000000	0.000000
353.000000	0.000000
352.000000	0.000000
351.000000	0.000000
350.000000	0.000000
349.000000	0.000000
348.000000	0.000000
347.000000	0.000000
346.000000	0.000000
345.000000	0.000000
344.000000	0.000000
343.000000	0.000000
342.000000	0.000000
341.000000	0.000000
340.000000	0.000000
339.000000	0.000000
338.000000	0.000000
337.000000	0.000000
336.000000	0.000000
335.000000	0.000000
334.000000	0.000000
333.000000	0.000000
332.000000	0.000000
331.000000	0.000000
330.000000	0.000000
329.000000	0.000000
328.000000	0.000000
327.000000	0.000000
326.000000	0.000000
325.000000	0.000000
324.000000	0.000000
323.000000	0.000000
322.000000	0.000000
321.000000	0.000000
320.000000	0.000000
319.000000	0.000000
318.000000	0.000000
317.000000	0.000000
316.000000	0.000000
315.000000	0.000000
314.000000	0.000000
313.000000	0.000000
312.000000	0.000000
311.000000	0.000000
310.000000	0.000000
309.000000	0.000000
308.000000	0.000000
307.000000	0.000000
306.000000	0.000000
305.000000	0.000000
304.000000	0.000000
303.000000	0.000000
302.000000	0.000000
301.000000	0.000000
300.000000	0.000000
299.000000	0.000000
298.000000	0.000000
297.000000	0.000000
296.000000	0.000000
295.000000	0.000000
294.000000	0.000000
293.000000	0.000000
292.000000	0.000000
291.000000	0.000000
290.000000	0.000000
289.000000	0.000000
288.000000	0.000000
287.000000	0.000000
286.000000	0.000000
285.000000	0.000000
284.000000	0.000000
283.000000	0.000000
282.000000	0.000000
281.000000	0.000000
280.000000	0.000000
279.000000	0.000000
278.000000	0.000000
277.000000	0.000000
276.000000	0.000000
275.000000	0.000000
274.000000	0.000000
273.000000	0.000000
272.000000	0.000000
271.000000	0.000000
270.000000	0.000000
269.000000	0.000000
268.000000	0.000000
267.000000	0.000000
266.000000	0.000000
265.000000	0.000000
264.000000	0.000000
263.000000	0.000000
262.000000	0.000000
261.000000	0.000000
260.000000	0.000000
259.000000	0.000000
258.000000	0.000000
257.000000	0.000000
256.000000	0.000000
255.000000	0.000000
254.000000	0.000000
253.000000	0.000000
252.000000	0.000000
251.000000	0.000000
250.000000	0.000000
249.000000	0.000000
248.000000	0.000000
247.000000	0.000000
246.000000	0.000000
245.000000	0.000000
244.000000	0.000000
243.000000	0.000000
242.000000	0.000000
241.000000	0.000000
240.000000	0.000000
239.000000	0.000000
238.000000	0.000000
237.000000	0.000000
236.000000	0.000000
235.000000	0.000000
234.000000	0.000000
233.000000	0.000000
232.000000	0.000000
231.000000	0.000000
230.000000	0.000000
229.000000	0.000000
228.000000	0.000000
227.000000	0.000000
226.000000	0.000000
225.000000	0.000000
224.000000	0.000000
223.000000	0.000000
222.000000	0.000000
221.000000	0.000000
220.000000	0.000000
219.000000	0.000000
218.000000	0.000000
217.000000	0.000000
216.000000	0.000000
215.000000	0.000000
214.000000	0.000000
213.000000	0.000000
212.000000	0.000000
211.000000	0.000000
210.000000	0.000000
209.000000	0.000000
208.000000	0.000000
207.000000	0.000000
206.000000	0.000000
205.000000	0.000000
204.000000	0.000000
203.000000	0.000000
202.000000	0.000000
201.000000	0.000000
200.000000	0.000000
