PE UV       SUBTECH     SPECTRUM    ASCII       PEDS        4.00        
   -1
MQ2_1CM_CELL.Sample.Raw.asc
10/09/02
16:29:36.00
10/09/02
16:29:36.00
Hermanni Kaartokallio

200.000000
1
Lambda 650
650N8121101
PerkinElmer UV WinLab 6.0.2.0723 / 1.61.00 Lambda 650

0
0
2
0
0
UV/VIS
1
1
1
uv/vis/nir detector
0
0
0
0
Fix
 
0
0.24
0
0
0
 
 
 
0
 
0
319.2
0
Front
100
 
 
 
0
0
0
 
0
 
 
 
0
 
 
0
0
0
0
0
 
 
 
 
0
0
#HDR
-1
-1
#GR
nm
A
1.0
0.0
800.000000
-1.000000
601
8
0.104227
0.030677
#DATA
800.000000	0.040683
799.000000	0.040834
798.000000	0.040771
797.000000	0.041032
796.000000	0.041030
795.000000	0.041172
794.000000	0.041232
793.000000	0.041437
792.000000	0.041513
791.000000	0.041658
790.000000	0.041654
789.000000	0.041874
788.000000	0.041736
787.000000	0.041888
786.000000	0.041909
785.000000	0.042021
784.000000	0.042112
783.000000	0.042111
782.000000	0.042312
781.000000	0.042351
780.000000	0.042269
779.000000	0.042321
778.000000	0.042443
777.000000	0.042455
776.000000	0.042458
775.000000	0.042524
774.000000	0.042412
773.000000	0.042343
772.000000	0.042273
771.000000	0.042522
770.000000	0.042457
769.000000	0.042380
768.000000	0.042270
767.000000	0.042350
766.000000	0.042332
765.000000	0.042330
764.000000	0.042352
763.000000	0.042284
762.000000	0.041927
761.000000	0.042051
760.000000	0.042132
759.000000	0.042141
758.000000	0.041971
757.000000	0.041894
756.000000	0.041903
755.000000	0.041859
754.000000	0.041932
753.000000	0.042028
752.000000	0.042038
751.000000	0.041984
750.000000	0.041947
749.000000	0.042072
748.000000	0.042144
747.000000	0.042191
746.000000	0.042203
745.000000	0.042157
744.000000	0.042042
743.000000	0.042149
742.000000	0.042131
741.000000	0.042021
740.000000	0.041910
739.000000	0.041772
738.000000	0.041625
737.000000	0.041369
736.000000	0.041089
735.000000	0.040741
734.000000	0.040275
733.000000	0.039656
732.000000	0.039168
731.000000	0.038826
730.000000	0.038253
729.000000	0.037598
728.000000	0.037173
727.000000	0.036796
726.000000	0.036407
725.000000	0.036129
724.000000	0.035932
723.000000	0.035706
722.000000	0.035377
721.000000	0.035142
720.000000	0.034915
719.000000	0.034664
718.000000	0.034488
717.000000	0.034306
716.000000	0.034037
715.000000	0.033741
714.000000	0.033470
713.000000	0.033272
712.000000	0.033012
711.000000	0.032753
710.000000	0.032588
709.000000	0.032388
708.000000	0.032204
707.000000	0.032097
706.000000	0.031988
705.000000	0.031803
704.000000	0.031627
703.000000	0.031535
702.000000	0.031473
701.000000	0.031390
700.000000	0.031138
699.000000	0.031114
698.000000	0.031181
697.000000	0.030965
696.000000	0.030838
695.000000	0.030855
694.000000	0.030812
693.000000	0.030721
692.000000	0.030706
691.000000	0.030718
690.000000	0.030677
689.000000	0.030777
688.000000	0.030846
687.000000	0.030814
686.000000	0.030909
685.000000	0.031041
684.000000	0.031056
683.000000	0.031125
682.000000	0.031170
681.000000	0.031260
680.000000	0.031374
679.000000	0.031390
678.000000	0.031539
677.000000	0.031615
676.000000	0.031577
675.000000	0.031590
674.000000	0.031733
673.000000	0.031758
672.000000	0.031725
671.000000	0.031784
670.000000	0.031767
669.000000	0.031790
668.000000	0.031820
667.000000	0.031799
666.000000	0.031835
665.000000	0.031789
664.000000	0.031674
663.000000	0.031787
662.000000	0.031820
661.000000	0.031681
660.000000	0.031747
659.000000	0.031824
658.000000	0.031693
657.000000	0.031580
656.000000	0.031651
655.000000	0.031696
654.000000	0.031620
653.000000	0.031637
652.000000	0.031659
651.000000	0.031608
650.000000	0.031604
649.000000	0.031755
648.000000	0.031766
647.000000	0.031715
646.000000	0.031679
645.000000	0.031775
644.000000	0.031863
643.000000	0.031856
642.000000	0.031890
641.000000	0.032031
640.000000	0.031985
639.000000	0.031965
638.000000	0.032087
637.000000	0.032108
636.000000	0.032074
635.000000	0.032143
634.000000	0.032184
633.000000	0.032187
632.000000	0.032082
631.000000	0.032261
630.000000	0.032164
629.000000	0.032258
628.000000	0.032258
627.000000	0.032176
626.000000	0.032353
625.000000	0.032324
624.000000	0.032371
623.000000	0.032455
622.000000	0.032336
621.000000	0.032446
620.000000	0.032577
619.000000	0.032667
618.000000	0.032624
617.000000	0.032688
616.000000	0.032711
615.000000	0.032733
614.000000	0.032630
613.000000	0.032753
612.000000	0.032944
611.000000	0.032801
610.000000	0.032760
609.000000	0.032986
608.000000	0.033043
607.000000	0.032867
606.000000	0.032895
605.000000	0.033295
604.000000	0.032919
603.000000	0.032897
602.000000	0.032988
601.000000	0.032922
600.000000	0.032833
599.000000	0.032663
598.000000	0.032722
597.000000	0.032631
596.000000	0.032478
595.000000	0.032426
594.000000	0.032378
593.000000	0.032308
592.000000	0.032148
591.000000	0.032125
590.000000	0.032324
589.000000	0.032132
588.000000	0.032081
587.000000	0.032084
586.000000	0.032065
585.000000	0.031859
584.000000	0.031865
583.000000	0.031509
582.000000	0.032424
581.000000	0.031826
580.000000	0.031856
579.000000	0.031851
578.000000	0.031912
577.000000	0.031678
576.000000	0.031888
575.000000	0.031932
574.000000	0.031872
573.000000	0.031850
572.000000	0.032008
571.000000	0.031915
570.000000	0.031875
569.000000	0.031962
568.000000	0.031921
567.000000	0.031994
566.000000	0.032057
565.000000	0.032268
564.000000	0.032315
563.000000	0.032286
562.000000	0.032450
561.000000	0.032389
560.000000	0.032360
559.000000	0.032459
558.000000	0.032576
557.000000	0.032073
556.000000	0.030826
555.000000	0.033090
554.000000	0.032790
553.000000	0.032817
552.000000	0.032874
551.000000	0.033036
550.000000	0.033023
549.000000	0.033057
548.000000	0.033144
547.000000	0.033250
546.000000	0.033240
545.000000	0.033240
544.000000	0.033348
543.000000	0.033402
542.000000	0.033340
541.000000	0.033467
540.000000	0.033594
539.000000	0.033561
538.000000	0.033533
537.000000	0.033603
536.000000	0.033612
535.000000	0.033620
534.000000	0.033703
533.000000	0.033779
532.000000	0.033799
531.000000	0.033705
530.000000	0.033692
529.000000	0.033784
528.000000	0.033784
527.000000	0.033740
526.000000	0.033829
525.000000	0.033849
524.000000	0.033758
523.000000	0.033764
522.000000	0.033801
521.000000	0.033877
520.000000	0.033823
519.000000	0.033868
518.000000	0.033845
517.000000	0.033826
516.000000	0.033843
515.000000	0.033915
514.000000	0.033907
513.000000	0.033748
512.000000	0.033718
511.000000	0.033739
510.000000	0.033691
509.000000	0.033645
508.000000	0.033667
507.000000	0.033644
506.000000	0.033497
505.000000	0.033514
504.000000	0.033563
503.000000	0.033480
502.000000	0.033352
501.000000	0.033881
500.000000	0.033902
499.000000	0.033273
498.000000	0.033201
497.000000	0.033231
496.000000	0.033271
495.000000	0.033168
494.000000	0.033140
493.000000	0.033243
492.000000	0.033192
491.000000	0.033106
490.000000	0.033160
489.000000	0.033114
488.000000	0.033024
487.000000	0.033043
486.000000	0.033089
485.000000	0.033066
484.000000	0.033014
483.000000	0.032965
482.000000	0.032989
481.000000	0.032992
480.000000	0.033004
479.000000	0.033087
478.000000	0.033114
477.000000	0.033004
476.000000	0.033029
475.000000	0.033431
474.000000	0.033354
473.000000	0.033165
472.000000	0.033258
471.000000	0.033291
470.000000	0.033253
469.000000	0.033288
468.000000	0.033453
467.000000	0.033497
466.000000	0.033437
465.000000	0.033452
464.000000	0.033532
463.000000	0.033554
462.000000	0.033595
461.000000	0.033675
460.000000	0.033754
459.000000	0.033688
458.000000	0.033751
457.000000	0.033916
456.000000	0.033898
455.000000	0.033931
454.000000	0.034021
453.000000	0.034028
452.000000	0.034049
451.000000	0.034135
450.000000	0.034244
449.000000	0.034279
448.000000	0.034229
447.000000	0.034203
446.000000	0.034355
445.000000	0.034487
444.000000	0.034522
443.000000	0.034583
442.000000	0.034598
441.000000	0.034561
440.000000	0.034689
439.000000	0.034820
438.000000	0.034901
437.000000	0.034877
436.000000	0.034956
435.000000	0.034973
434.000000	0.035079
433.000000	0.035154
432.000000	0.035245
431.000000	0.035287
430.000000	0.035259
429.000000	0.035328
428.000000	0.035421
427.000000	0.035515
426.000000	0.035511
425.000000	0.035612
424.000000	0.035716
423.000000	0.035658
422.000000	0.035660
421.000000	0.035807
420.000000	0.035814
419.000000	0.035757
418.000000	0.035791
417.000000	0.035888
416.000000	0.035909
415.000000	0.035982
414.000000	0.036082
413.000000	0.035953
412.000000	0.035962
411.000000	0.035843
410.000000	0.036008
409.000000	0.035998
408.000000	0.036021
407.000000	0.036017
406.000000	0.037298
405.000000	0.036052
404.000000	0.035995
403.000000	0.036042
402.000000	0.035999
401.000000	0.036072
400.000000	0.036064
399.000000	0.035951
398.000000	0.036039
397.000000	0.036143
396.000000	0.036125
395.000000	0.036162
394.000000	0.036194
393.000000	0.036076
392.000000	0.036173
391.000000	0.036261
390.000000	0.036287
389.000000	0.036369
388.000000	0.036402
387.000000	0.036299
386.000000	0.036278
385.000000	0.036405
384.000000	0.036464
383.000000	0.036448
382.000000	0.036473
381.000000	0.036375
380.000000	0.036522
379.000000	0.036582
378.000000	0.036578
377.000000	0.036678
376.000000	0.036644
375.000000	0.036685
374.000000	0.036752
373.000000	0.036860
372.000000	0.036841
371.000000	0.036768
370.000000	0.036861
369.000000	0.037058
368.000000	0.037108
367.000000	0.037150
366.000000	0.037224
365.000000	0.037151
364.000000	0.037210
363.000000	0.037358
362.000000	0.037436
361.000000	0.037458
360.000000	0.037548
359.000000	0.037528
358.000000	0.037653
357.000000	0.037753
356.000000	0.037852
355.000000	0.037929
354.000000	0.038010
353.000000	0.038053
352.000000	0.038227
351.000000	0.038274
350.000000	0.038369
349.000000	0.038455
348.000000	0.038574
347.000000	0.038545
346.000000	0.038676
345.000000	0.038785
344.000000	0.038850
343.000000	0.038957
342.000000	0.038960
341.000000	0.039021
340.000000	0.039217
339.000000	0.039342
338.000000	0.039393
337.000000	0.039435
336.000000	0.039492
335.000000	0.039491
334.000000	0.039604
333.000000	0.039730
332.000000	0.039860
331.000000	0.039948
330.000000	0.039869
329.000000	0.039919
328.000000	0.040075
327.000000	0.040159
326.000000	0.040193
325.000000	0.040267
324.000000	0.040228
323.000000	0.040300
322.000000	0.040502
321.000000	0.040615
320.000000	0.040622
319.000000	0.040687
318.000000	0.040595
317.000000	0.040478
316.000000	0.040620
315.000000	0.040767
314.000000	0.040878
313.000000	0.040955
312.000000	0.041101
311.000000	0.041123
310.000000	0.041212
309.000000	0.041291
308.000000	0.041419
307.000000	0.041582
306.000000	0.041675
305.000000	0.041736
304.000000	0.041879
303.000000	0.042161
302.000000	0.042216
301.000000	0.042166
300.000000	0.042339
299.000000	0.042464
298.000000	0.042606
297.000000	0.042886
296.000000	0.042970
295.000000	0.042974
294.000000	0.043162
293.000000	0.043334
292.000000	0.043446
291.000000	0.043579
290.000000	0.043792
289.000000	0.043973
288.000000	0.044069
287.000000	0.044170
286.000000	0.044344
285.000000	0.044508
284.000000	0.044564
283.000000	0.044682
282.000000	0.044852
281.000000	0.045037
280.000000	0.045230
279.000000	0.045402
278.000000	0.045506
277.000000	0.045653
276.000000	0.045898
275.000000	0.046042
274.000000	0.046152
273.000000	0.046356
272.000000	0.046692
271.000000	0.046778
270.000000	0.046917
269.000000	0.047148
268.000000	0.047445
267.000000	0.047573
266.000000	0.047710
265.000000	0.047942
264.000000	0.048116
263.000000	0.048226
262.000000	0.048365
261.000000	0.048744
260.000000	0.048931
259.000000	0.049102
258.000000	0.049495
257.000000	0.049741
256.000000	0.049884
255.000000	0.050012
254.000000	0.050496
253.000000	0.050784
252.000000	0.050945
251.000000	0.051164
250.000000	0.051475
249.000000	0.051828
248.000000	0.052066
247.000000	0.052464
246.000000	0.052819
245.000000	0.053005
244.000000	0.053331
243.000000	0.053877
242.000000	0.054249
241.000000	0.054614
240.000000	0.055015
239.000000	0.055443
238.000000	0.055835
237.000000	0.056368
236.000000	0.056834
235.000000	0.057210
234.000000	0.057533
233.000000	0.057971
232.000000	0.058524
231.000000	0.059083
230.000000	0.059482
229.000000	0.060046
228.000000	0.060563
227.000000	0.060941
226.000000	0.061477
225.000000	0.062296
224.000000	0.062927
223.000000	0.063371
222.000000	0.064034
221.000000	0.064699
220.000000	0.065366
219.000000	0.066170
218.000000	0.066910
217.000000	0.067839
216.000000	0.068758
215.000000	0.069881
214.000000	0.070897
213.000000	0.072374
212.000000	0.073379
211.000000	0.075069
210.000000	0.076935
209.000000	0.078449
208.000000	0.080369
207.000000	0.082531
206.000000	0.084821
205.000000	0.087531
204.000000	0.090286
203.000000	0.093317
202.000000	0.096432
201.000000	0.100279
200.000000	0.104227
