PE UV       SUBTECH     SPECTRUM    ASCII       PEDS        4.00        
   -1
MQ1.Sample.Raw.asc
10/09/02
09:58:09.00
10/09/02
09:58:09.00
Hermanni Kaartokallio

200.000000
1
Lambda 650
650N8121101
PerkinElmer UV WinLab 6.0.2.0723 / 1.61.00 Lambda 650

0
0
2
0
0
UV/VIS
1
1
1
uv/vis/nir detector
0
0
0
0
Fix
 
0
0.16
0
0
0
 
 
 
0
 
0
319.2
0
Front
100
 
 
 
0
0
0
 
0
 
 
 
0
 
 
0
0
0
0
0
 
 
 
 
0
0
#HDR
-1
-1
#GR
nm
A
1.0
0.0
800.000000
-1.000000
601
8
0.199444
0.033365
#DATA
800.000000	0.079739
799.000000	0.080178
798.000000	0.080669
797.000000	0.080841
796.000000	0.081328
795.000000	0.081768
794.000000	0.082302
793.000000	0.082716
792.000000	0.083059
791.000000	0.083262
790.000000	0.083763
789.000000	0.084478
788.000000	0.084683
787.000000	0.085014
786.000000	0.085484
785.000000	0.086027
784.000000	0.086621
783.000000	0.086903
782.000000	0.087239
781.000000	0.087438
780.000000	0.087689
779.000000	0.088139
778.000000	0.088410
777.000000	0.088721
776.000000	0.088784
775.000000	0.089098
774.000000	0.089246
773.000000	0.089525
772.000000	0.089836
771.000000	0.089790
770.000000	0.089933
769.000000	0.089926
768.000000	0.090201
767.000000	0.090473
766.000000	0.090361
765.000000	0.090423
764.000000	0.090638
763.000000	0.090919
762.000000	0.090896
761.000000	0.090811
760.000000	0.090775
759.000000	0.090692
758.000000	0.090767
757.000000	0.090763
756.000000	0.090387
755.000000	0.090590
754.000000	0.090539
753.000000	0.090596
752.000000	0.090561
751.000000	0.090557
750.000000	0.090634
749.000000	0.090679
748.000000	0.090570
747.000000	0.090347
746.000000	0.090370
745.000000	0.090392
744.000000	0.090273
743.000000	0.090091
742.000000	0.090108
741.000000	0.089927
740.000000	0.089494
739.000000	0.088876
738.000000	0.088035
737.000000	0.086689
736.000000	0.085251
735.000000	0.083628
734.000000	0.081541
733.000000	0.079405
732.000000	0.076913
731.000000	0.074300
730.000000	0.071810
729.000000	0.069443
728.000000	0.067355
727.000000	0.065461
726.000000	0.063593
725.000000	0.061953
724.000000	0.060740
723.000000	0.059579
722.000000	0.058255
721.000000	0.056937
720.000000	0.055828
719.000000	0.054905
718.000000	0.053924
717.000000	0.052858
716.000000	0.051703
715.000000	0.050427
714.000000	0.049553
713.000000	0.048771
712.000000	0.047858
711.000000	0.046998
710.000000	0.046212
709.000000	0.045616
708.000000	0.045097
707.000000	0.044617
706.000000	0.044092
705.000000	0.043512
704.000000	0.043031
703.000000	0.042574
702.000000	0.042338
701.000000	0.042016
700.000000	0.041504
699.000000	0.041131
698.000000	0.040963
697.000000	0.040861
696.000000	0.040586
695.000000	0.040396
694.000000	0.040235
693.000000	0.039929
692.000000	0.039751
691.000000	0.039662
690.000000	0.039579
689.000000	0.039613
688.000000	0.039646
687.000000	0.039591
686.000000	0.039593
685.000000	0.039613
684.000000	0.039706
683.000000	0.039817
682.000000	0.039824
681.000000	0.039693
680.000000	0.039662
679.000000	0.039880
678.000000	0.040010
677.000000	0.040047
676.000000	0.040059
675.000000	0.040147
674.000000	0.040303
673.000000	0.040416
672.000000	0.040321
671.000000	0.040183
670.000000	0.040092
669.000000	0.040206
668.000000	0.040296
667.000000	0.040258
666.000000	0.040092
665.000000	0.039995
664.000000	0.040048
663.000000	0.040052
662.000000	0.040092
661.000000	0.039943
660.000000	0.039788
659.000000	0.039541
658.000000	0.039338
657.000000	0.039426
656.000000	0.039264
655.000000	0.038843
654.000000	0.038670
653.000000	0.038708
652.000000	0.038673
651.000000	0.038541
650.000000	0.038546
649.000000	0.038313
648.000000	0.038090
647.000000	0.038201
646.000000	0.038117
645.000000	0.038059
644.000000	0.038149
643.000000	0.038176
642.000000	0.037871
641.000000	0.037749
640.000000	0.037949
639.000000	0.038042
638.000000	0.037870
637.000000	0.037567
636.000000	0.037364
635.000000	0.037516
634.000000	0.037453
633.000000	0.037239
632.000000	0.037053
631.000000	0.036898
630.000000	0.036960
629.000000	0.036884
628.000000	0.036832
627.000000	0.036741
626.000000	0.036525
625.000000	0.036549
624.000000	0.036605
623.000000	0.036602
622.000000	0.036561
621.000000	0.036748
620.000000	0.036537
619.000000	0.036643
618.000000	0.036875
617.000000	0.036939
616.000000	0.036811
615.000000	0.036661
614.000000	0.036520
613.000000	0.036930
612.000000	0.036935
611.000000	0.036649
610.000000	0.036567
609.000000	0.036627
608.000000	0.036787
607.000000	0.036731
606.000000	0.036773
605.000000	0.036501
604.000000	0.036433
603.000000	0.036543
602.000000	0.036551
601.000000	0.036202
600.000000	0.036035
599.000000	0.035901
598.000000	0.035534
597.000000	0.035334
596.000000	0.035092
595.000000	0.034880
594.000000	0.034746
593.000000	0.034613
592.000000	0.034412
591.000000	0.034588
590.000000	0.034109
589.000000	0.034179
588.000000	0.034074
587.000000	0.034184
586.000000	0.034044
585.000000	0.033681
584.000000	0.033884
583.000000	0.034013
582.000000	0.033912
581.000000	0.033740
580.000000	0.033722
579.000000	0.033583
578.000000	0.033811
577.000000	0.033743
576.000000	0.033637
575.000000	0.033609
574.000000	0.033542
573.000000	0.033520
572.000000	0.033574
571.000000	0.033511
570.000000	0.033365
569.000000	0.033689
568.000000	0.033490
567.000000	0.033603
566.000000	0.033556
565.000000	0.033732
564.000000	0.033570
563.000000	0.033502
562.000000	0.033759
561.000000	0.033677
560.000000	0.033742
559.000000	0.033677
558.000000	0.033796
557.000000	0.033918
556.000000	0.034019
555.000000	0.033986
554.000000	0.033996
553.000000	0.033915
552.000000	0.033946
551.000000	0.034149
550.000000	0.034129
549.000000	0.034062
548.000000	0.034183
547.000000	0.034341
546.000000	0.034360
545.000000	0.034316
544.000000	0.034334
543.000000	0.034270
542.000000	0.034237
541.000000	0.034307
540.000000	0.034232
539.000000	0.034301
538.000000	0.034370
537.000000	0.034319
536.000000	0.034382
535.000000	0.034431
534.000000	0.034387
533.000000	0.034226
532.000000	0.034434
531.000000	0.034363
530.000000	0.034345
529.000000	0.034512
528.000000	0.034578
527.000000	0.034606
526.000000	0.034494
525.000000	0.034430
524.000000	0.034325
523.000000	0.034408
522.000000	0.034548
521.000000	0.034645
520.000000	0.034586
519.000000	0.034587
518.000000	0.034599
517.000000	0.034571
516.000000	0.034468
515.000000	0.034457
514.000000	0.034578
513.000000	0.034680
512.000000	0.034702
511.000000	0.034574
510.000000	0.034370
509.000000	0.034137
508.000000	0.034203
507.000000	0.034328
506.000000	0.034263
505.000000	0.034264
504.000000	0.034417
503.000000	0.034583
502.000000	0.034646
501.000000	0.034590
500.000000	0.034458
499.000000	0.034326
498.000000	0.034369
497.000000	0.034428
496.000000	0.034391
495.000000	0.034340
494.000000	0.034282
493.000000	0.034327
492.000000	0.034443
491.000000	0.034431
490.000000	0.034344
489.000000	0.034355
488.000000	0.034251
487.000000	0.034101
486.000000	0.034229
485.000000	0.034246
484.000000	0.034174
483.000000	0.034183
482.000000	0.034328
481.000000	0.034497
480.000000	0.034501
479.000000	0.034481
478.000000	0.034429
477.000000	0.034248
476.000000	0.034271
475.000000	0.034229
474.000000	0.034241
473.000000	0.034266
472.000000	0.034259
471.000000	0.034291
470.000000	0.034320
469.000000	0.034360
468.000000	0.034430
467.000000	0.034452
466.000000	0.034325
465.000000	0.034248
464.000000	0.034362
463.000000	0.034400
462.000000	0.034467
461.000000	0.034632
460.000000	0.034670
459.000000	0.034799
458.000000	0.034921
457.000000	0.034855
456.000000	0.034749
455.000000	0.034624
454.000000	0.034721
453.000000	0.034732
452.000000	0.034848
451.000000	0.034926
450.000000	0.034915
449.000000	0.034823
448.000000	0.034931
447.000000	0.035210
446.000000	0.035227
445.000000	0.035192
444.000000	0.034918
443.000000	0.034879
442.000000	0.035225
441.000000	0.035294
440.000000	0.035127
439.000000	0.034982
438.000000	0.035112
437.000000	0.035385
436.000000	0.035404
435.000000	0.035517
434.000000	0.035235
433.000000	0.034960
432.000000	0.035374
431.000000	0.035358
430.000000	0.035369
429.000000	0.035441
428.000000	0.035496
427.000000	0.035476
426.000000	0.035621
425.000000	0.035800
424.000000	0.035903
423.000000	0.035985
422.000000	0.035806
421.000000	0.035784
420.000000	0.036124
419.000000	0.036123
418.000000	0.035920
417.000000	0.035908
416.000000	0.035977
415.000000	0.036126
414.000000	0.035967
413.000000	0.036108
412.000000	0.036061
411.000000	0.036101
410.000000	0.036268
409.000000	0.036286
408.000000	0.036179
407.000000	0.036265
406.000000	0.036567
405.000000	0.036406
404.000000	0.036371
403.000000	0.036541
402.000000	0.036734
401.000000	0.036811
400.000000	0.036719
399.000000	0.036535
398.000000	0.036832
397.000000	0.036791
396.000000	0.036613
395.000000	0.036852
394.000000	0.036763
393.000000	0.036722
392.000000	0.036815
391.000000	0.036780
390.000000	0.036895
389.000000	0.036794
388.000000	0.036912
387.000000	0.036944
386.000000	0.037007
385.000000	0.036942
384.000000	0.037005
383.000000	0.037124
382.000000	0.037110
381.000000	0.037081
380.000000	0.037058
379.000000	0.037003
378.000000	0.036811
377.000000	0.037022
376.000000	0.037048
375.000000	0.036977
374.000000	0.037056
373.000000	0.037032
372.000000	0.037036
371.000000	0.037152
370.000000	0.036900
369.000000	0.037052
368.000000	0.037335
367.000000	0.037277
366.000000	0.037296
365.000000	0.037261
364.000000	0.037340
363.000000	0.037505
362.000000	0.037645
361.000000	0.037610
360.000000	0.037546
359.000000	0.037397
358.000000	0.037546
357.000000	0.037670
356.000000	0.037675
355.000000	0.037557
354.000000	0.037641
353.000000	0.037733
352.000000	0.037812
351.000000	0.037999
350.000000	0.037964
349.000000	0.037887
348.000000	0.037715
347.000000	0.037849
346.000000	0.038131
345.000000	0.038135
344.000000	0.038076
343.000000	0.038250
342.000000	0.038517
341.000000	0.038712
340.000000	0.038626
339.000000	0.038714
338.000000	0.038644
337.000000	0.038575
336.000000	0.038710
335.000000	0.038744
334.000000	0.038761
333.000000	0.038734
332.000000	0.038848
331.000000	0.039118
330.000000	0.039149
329.000000	0.039241
328.000000	0.039311
327.000000	0.039283
326.000000	0.039271
325.000000	0.039420
324.000000	0.039617
323.000000	0.039638
322.000000	0.039776
321.000000	0.039983
320.000000	0.040132
319.000000	0.040188
318.000000	0.040202
317.000000	0.040283
316.000000	0.040343
315.000000	0.040389
314.000000	0.040691
313.000000	0.040780
312.000000	0.040998
311.000000	0.041140
310.000000	0.041113
309.000000	0.041259
308.000000	0.041441
307.000000	0.041705
306.000000	0.041689
305.000000	0.041776
304.000000	0.042121
303.000000	0.042475
302.000000	0.042693
301.000000	0.042655
300.000000	0.042635
299.000000	0.042658
298.000000	0.042778
297.000000	0.042930
296.000000	0.043121
295.000000	0.043313
294.000000	0.043485
293.000000	0.043866
292.000000	0.044218
291.000000	0.044416
290.000000	0.044671
289.000000	0.044918
288.000000	0.045088
287.000000	0.045446
286.000000	0.045950
285.000000	0.046279
284.000000	0.046425
283.000000	0.046642
282.000000	0.047014
281.000000	0.047326
280.000000	0.047688
279.000000	0.047902
278.000000	0.048046
277.000000	0.048099
276.000000	0.048291
275.000000	0.048436
274.000000	0.048565
273.000000	0.048752
272.000000	0.048746
271.000000	0.048949
270.000000	0.049162
269.000000	0.049263
268.000000	0.049390
267.000000	0.049739
266.000000	0.049817
265.000000	0.049890
264.000000	0.050269
263.000000	0.050511
262.000000	0.050750
261.000000	0.051119
260.000000	0.051419
259.000000	0.051770
258.000000	0.052269
257.000000	0.052767
256.000000	0.053064
255.000000	0.053471
254.000000	0.053931
253.000000	0.054558
252.000000	0.055138
251.000000	0.055612
250.000000	0.056178
249.000000	0.056890
248.000000	0.057633
247.000000	0.058465
246.000000	0.059238
245.000000	0.059941
244.000000	0.060568
243.000000	0.061340
242.000000	0.062624
241.000000	0.063697
240.000000	0.064564
239.000000	0.065600
238.000000	0.066580
237.000000	0.067811
236.000000	0.068718
235.000000	0.069654
234.000000	0.070386
233.000000	0.071094
232.000000	0.072174
231.000000	0.072964
230.000000	0.073739
229.000000	0.074637
228.000000	0.075387
227.000000	0.076367
226.000000	0.077129
225.000000	0.078126
224.000000	0.078884
223.000000	0.079933
222.000000	0.080786
221.000000	0.081783
220.000000	0.082953
219.000000	0.084195
218.000000	0.085482
217.000000	0.087082
216.000000	0.088850
215.000000	0.091097
214.000000	0.093419
213.000000	0.096221
212.000000	0.099447
211.000000	0.103258
210.000000	0.107934
209.000000	0.113356
208.000000	0.119403
207.000000	0.126486
206.000000	0.134523
205.000000	0.143145
204.000000	0.152350
203.000000	0.162760
202.000000	0.173810
201.000000	0.185982
200.000000	0.199444
