PE UV       SUBTECH     SPECTRUM    ASCII       PEDS        4.00        
   -1
MQ2.Sample.Raw.asc
10/09/02
14:03:38.00
10/09/02
14:03:38.00
Hermanni Kaartokallio

200.000000
1
Lambda 650
650N8121101
PerkinElmer UV WinLab 6.0.2.0723 / 1.61.00 Lambda 650

0
0
2
0
0
UV/VIS
1
1
1
uv/vis/nir detector
0
0
0
0
Fix
 
0
0.24
0
0
0
 
 
 
0
 
0
319.2
0
Front
100
 
 
 
0
0
0
 
0
 
 
 
0
 
 
0
0
0
0
0
 
 
 
 
0
0
#HDR
-1
-1
#GR
nm
A
1.0
0.0
800.000000
-1.000000
601
8
0.165670
0.031200
#DATA
800.000000	0.078319
799.000000	0.078677
798.000000	0.079274
797.000000	0.079602
796.000000	0.079922
795.000000	0.080382
794.000000	0.080851
793.000000	0.081279
792.000000	0.081832
791.000000	0.082163
790.000000	0.082685
789.000000	0.083153
788.000000	0.083461
787.000000	0.083980
786.000000	0.084496
785.000000	0.084839
784.000000	0.085202
783.000000	0.085519
782.000000	0.085931
781.000000	0.086443
780.000000	0.086664
779.000000	0.086889
778.000000	0.087122
777.000000	0.087456
776.000000	0.087807
775.000000	0.088061
774.000000	0.088229
773.000000	0.088326
772.000000	0.088409
771.000000	0.088801
770.000000	0.088907
769.000000	0.089095
768.000000	0.089172
767.000000	0.089215
766.000000	0.089324
765.000000	0.089408
764.000000	0.089428
763.000000	0.089509
762.000000	0.089446
761.000000	0.089434
760.000000	0.089565
759.000000	0.089580
758.000000	0.089462
757.000000	0.089501
756.000000	0.089530
755.000000	0.089356
754.000000	0.089384
753.000000	0.089342
752.000000	0.089369
751.000000	0.089355
750.000000	0.089336
749.000000	0.089325
748.000000	0.089332
747.000000	0.089242
746.000000	0.089169
745.000000	0.089130
744.000000	0.089089
743.000000	0.088945
742.000000	0.088772
741.000000	0.088386
740.000000	0.087951
739.000000	0.087383
738.000000	0.086601
737.000000	0.085448
736.000000	0.084039
735.000000	0.082355
734.000000	0.080421
733.000000	0.078178
732.000000	0.075810
731.000000	0.073260
730.000000	0.070746
729.000000	0.068196
728.000000	0.065997
727.000000	0.064135
726.000000	0.062453
725.000000	0.060933
724.000000	0.059536
723.000000	0.058196
722.000000	0.056884
721.000000	0.055765
720.000000	0.054627
719.000000	0.053407
718.000000	0.052264
717.000000	0.051224
716.000000	0.050160
715.000000	0.049132
714.000000	0.048219
713.000000	0.047260
712.000000	0.046371
711.000000	0.045549
710.000000	0.044866
709.000000	0.044274
708.000000	0.043674
707.000000	0.043122
706.000000	0.042595
705.000000	0.042021
704.000000	0.041597
703.000000	0.041320
702.000000	0.040969
701.000000	0.040541
700.000000	0.040026
699.000000	0.039832
698.000000	0.039704
697.000000	0.039376
696.000000	0.039131
695.000000	0.038868
694.000000	0.038632
693.000000	0.038459
692.000000	0.038372
691.000000	0.038386
690.000000	0.038230
689.000000	0.038157
688.000000	0.038211
687.000000	0.038113
686.000000	0.038102
685.000000	0.038183
684.000000	0.038204
683.000000	0.038210
682.000000	0.038289
681.000000	0.038335
680.000000	0.038409
679.000000	0.038428
678.000000	0.038501
677.000000	0.038578
676.000000	0.038613
675.000000	0.038619
674.000000	0.038632
673.000000	0.038640
672.000000	0.038664
671.000000	0.038696
670.000000	0.038830
669.000000	0.038805
668.000000	0.038714
667.000000	0.038750
666.000000	0.038781
665.000000	0.038718
664.000000	0.038722
663.000000	0.038711
662.000000	0.038713
661.000000	0.038628
660.000000	0.038647
659.000000	0.038599
658.000000	0.038473
657.000000	0.038280
656.000000	0.038151
655.000000	0.037959
654.000000	0.037823
653.000000	0.037717
652.000000	0.037749
651.000000	0.037591
650.000000	0.037532
649.000000	0.037524
648.000000	0.037454
647.000000	0.037263
646.000000	0.037341
645.000000	0.037256
644.000000	0.037180
643.000000	0.037110
642.000000	0.037004
641.000000	0.037004
640.000000	0.036999
639.000000	0.036834
638.000000	0.036755
637.000000	0.036754
636.000000	0.036657
635.000000	0.036634
634.000000	0.036794
633.000000	0.036586
632.000000	0.036344
631.000000	0.036468
630.000000	0.036271
629.000000	0.036249
628.000000	0.036372
627.000000	0.036155
626.000000	0.036187
625.000000	0.036008
624.000000	0.036020
623.000000	0.036065
622.000000	0.036000
621.000000	0.036091
620.000000	0.036068
619.000000	0.036039
618.000000	0.035956
617.000000	0.035954
616.000000	0.036056
615.000000	0.035992
614.000000	0.035845
613.000000	0.035839
612.000000	0.035948
611.000000	0.035896
610.000000	0.036003
609.000000	0.036027
608.000000	0.035945
607.000000	0.035787
606.000000	0.035847
605.000000	0.036100
604.000000	0.035865
603.000000	0.035745
602.000000	0.035606
601.000000	0.035475
600.000000	0.035186
599.000000	0.034879
598.000000	0.034668
597.000000	0.034522
596.000000	0.034111
595.000000	0.033864
594.000000	0.033834
593.000000	0.033655
592.000000	0.033431
591.000000	0.033543
590.000000	0.033405
589.000000	0.033236
588.000000	0.033143
587.000000	0.033078
586.000000	0.032997
585.000000	0.032961
584.000000	0.032882
583.000000	0.032353
582.000000	0.033255
581.000000	0.032668
580.000000	0.032672
579.000000	0.032756
578.000000	0.032732
577.000000	0.032453
576.000000	0.032650
575.000000	0.032626
574.000000	0.032580
573.000000	0.032732
572.000000	0.032727
571.000000	0.032535
570.000000	0.032544
569.000000	0.032620
568.000000	0.032553
567.000000	0.032719
566.000000	0.032702
565.000000	0.032793
564.000000	0.032803
563.000000	0.032808
562.000000	0.032904
561.000000	0.032765
560.000000	0.032824
559.000000	0.032866
558.000000	0.032858
557.000000	0.032386
556.000000	0.031200
555.000000	0.033441
554.000000	0.033260
553.000000	0.033238
552.000000	0.033280
551.000000	0.033382
550.000000	0.033377
549.000000	0.033418
548.000000	0.033618
547.000000	0.033611
546.000000	0.033512
545.000000	0.033571
544.000000	0.033645
543.000000	0.033727
542.000000	0.033793
541.000000	0.033834
540.000000	0.033851
539.000000	0.033820
538.000000	0.033832
537.000000	0.033953
536.000000	0.034036
535.000000	0.033991
534.000000	0.034046
533.000000	0.034097
532.000000	0.034089
531.000000	0.034083
530.000000	0.034188
529.000000	0.034166
528.000000	0.034070
527.000000	0.034094
526.000000	0.034212
525.000000	0.034259
524.000000	0.034235
523.000000	0.034205
522.000000	0.034225
521.000000	0.034261
520.000000	0.034279
519.000000	0.034441
518.000000	0.034493
517.000000	0.034397
516.000000	0.034408
515.000000	0.034506
514.000000	0.034522
513.000000	0.034489
512.000000	0.034536
511.000000	0.034503
510.000000	0.034377
509.000000	0.034313
508.000000	0.034425
507.000000	0.034443
506.000000	0.034327
505.000000	0.034332
504.000000	0.034410
503.000000	0.034341
502.000000	0.034301
501.000000	0.034997
500.000000	0.035042
499.000000	0.034340
498.000000	0.034330
497.000000	0.034415
496.000000	0.034424
495.000000	0.034405
494.000000	0.034439
493.000000	0.034488
492.000000	0.034420
491.000000	0.034365
490.000000	0.034419
489.000000	0.034442
488.000000	0.034413
487.000000	0.034420
486.000000	0.034456
485.000000	0.034350
484.000000	0.034238
483.000000	0.034307
482.000000	0.034318
481.000000	0.034200
480.000000	0.034201
479.000000	0.034312
478.000000	0.034278
477.000000	0.034232
476.000000	0.034274
475.000000	0.034567
474.000000	0.034421
473.000000	0.034203
472.000000	0.034270
471.000000	0.034350
470.000000	0.034295
469.000000	0.034311
468.000000	0.034406
467.000000	0.034412
466.000000	0.034335
465.000000	0.034459
464.000000	0.034537
463.000000	0.034488
462.000000	0.034431
461.000000	0.034546
460.000000	0.034598
459.000000	0.034593
458.000000	0.034661
457.000000	0.034756
456.000000	0.034693
455.000000	0.034684
454.000000	0.034781
453.000000	0.034960
452.000000	0.034900
451.000000	0.034892
450.000000	0.034967
449.000000	0.035012
448.000000	0.034947
447.000000	0.035113
446.000000	0.035196
445.000000	0.035174
444.000000	0.035193
443.000000	0.035292
442.000000	0.035332
441.000000	0.035367
440.000000	0.035371
439.000000	0.035461
438.000000	0.035438
437.000000	0.035394
436.000000	0.035471
435.000000	0.035626
434.000000	0.035632
433.000000	0.035650
432.000000	0.035775
431.000000	0.035768
430.000000	0.035714
429.000000	0.035871
428.000000	0.035973
427.000000	0.035934
426.000000	0.035910
425.000000	0.036085
424.000000	0.036197
423.000000	0.036249
422.000000	0.036160
421.000000	0.036265
420.000000	0.036293
419.000000	0.036269
418.000000	0.036352
417.000000	0.036611
416.000000	0.036512
415.000000	0.036468
414.000000	0.036680
413.000000	0.036582
412.000000	0.036497
411.000000	0.036624
410.000000	0.036774
409.000000	0.036766
408.000000	0.036713
407.000000	0.036717
406.000000	0.038149
405.000000	0.036971
404.000000	0.036833
403.000000	0.036946
402.000000	0.036918
401.000000	0.036934
400.000000	0.036937
399.000000	0.037153
398.000000	0.037086
397.000000	0.037142
396.000000	0.037144
395.000000	0.037198
394.000000	0.037156
393.000000	0.037265
392.000000	0.037361
391.000000	0.037361
390.000000	0.037226
389.000000	0.037345
388.000000	0.037449
387.000000	0.037512
386.000000	0.037318
385.000000	0.037437
384.000000	0.037536
383.000000	0.037435
382.000000	0.037422
381.000000	0.037649
380.000000	0.037541
379.000000	0.037489
378.000000	0.037506
377.000000	0.037605
376.000000	0.037489
375.000000	0.037560
374.000000	0.037638
373.000000	0.037720
372.000000	0.037570
371.000000	0.037841
370.000000	0.037891
369.000000	0.037841
368.000000	0.037910
367.000000	0.037977
366.000000	0.038076
365.000000	0.038096
364.000000	0.038068
363.000000	0.038162
362.000000	0.038225
361.000000	0.038196
360.000000	0.038344
359.000000	0.038457
358.000000	0.038338
357.000000	0.038351
356.000000	0.038543
355.000000	0.038565
354.000000	0.038467
353.000000	0.038709
352.000000	0.038774
351.000000	0.038770
350.000000	0.038783
349.000000	0.038900
348.000000	0.038942
347.000000	0.039006
346.000000	0.039113
345.000000	0.039220
344.000000	0.039242
343.000000	0.039249
342.000000	0.039282
341.000000	0.039497
340.000000	0.039533
339.000000	0.039544
338.000000	0.039646
337.000000	0.039649
336.000000	0.039696
335.000000	0.039911
334.000000	0.039978
333.000000	0.039993
332.000000	0.040054
331.000000	0.040176
330.000000	0.040218
329.000000	0.040359
328.000000	0.040373
327.000000	0.040487
326.000000	0.040543
325.000000	0.040558
324.000000	0.040623
323.000000	0.040779
322.000000	0.040849
321.000000	0.040946
320.000000	0.040999
319.000000	0.041065
318.000000	0.041062
317.000000	0.041210
316.000000	0.041316
315.000000	0.041347
314.000000	0.041432
313.000000	0.041466
312.000000	0.041654
311.000000	0.041861
310.000000	0.042076
309.000000	0.042053
308.000000	0.042070
307.000000	0.042263
306.000000	0.042388
305.000000	0.042530
304.000000	0.042748
303.000000	0.042927
302.000000	0.042932
301.000000	0.042945
300.000000	0.043176
299.000000	0.043428
298.000000	0.043525
297.000000	0.043642
296.000000	0.043825
295.000000	0.043914
294.000000	0.044005
293.000000	0.044245
292.000000	0.044479
291.000000	0.044559
290.000000	0.044623
289.000000	0.044851
288.000000	0.045100
287.000000	0.045264
286.000000	0.045446
285.000000	0.045594
284.000000	0.045702
283.000000	0.045808
282.000000	0.045936
281.000000	0.046247
280.000000	0.046462
279.000000	0.046570
278.000000	0.046750
277.000000	0.046915
276.000000	0.047082
275.000000	0.047338
274.000000	0.047530
273.000000	0.047650
272.000000	0.047789
271.000000	0.047960
270.000000	0.048212
269.000000	0.048554
268.000000	0.048844
267.000000	0.049000
266.000000	0.049175
265.000000	0.049367
264.000000	0.049570
263.000000	0.049909
262.000000	0.050073
261.000000	0.050404
260.000000	0.050634
259.000000	0.050898
258.000000	0.051283
257.000000	0.051600
256.000000	0.051888
255.000000	0.052047
254.000000	0.052370
253.000000	0.052801
252.000000	0.053139
251.000000	0.053515
250.000000	0.053780
249.000000	0.054215
248.000000	0.054601
247.000000	0.054970
246.000000	0.055413
245.000000	0.055952
244.000000	0.056450
243.000000	0.056773
242.000000	0.057286
241.000000	0.057839
240.000000	0.058374
239.000000	0.058998
238.000000	0.059564
237.000000	0.060169
236.000000	0.060755
235.000000	0.061374
234.000000	0.062098
233.000000	0.062706
232.000000	0.063386
231.000000	0.064147
230.000000	0.064888
229.000000	0.065631
228.000000	0.066505
227.000000	0.067389
226.000000	0.068177
225.000000	0.069048
224.000000	0.069999
223.000000	0.071025
222.000000	0.072055
221.000000	0.073250
220.000000	0.074491
219.000000	0.075742
218.000000	0.077117
217.000000	0.078700
216.000000	0.080284
215.000000	0.082371
214.000000	0.084316
213.000000	0.086712
212.000000	0.089256
211.000000	0.092259
210.000000	0.095538
209.000000	0.099134
208.000000	0.103384
207.000000	0.107705
206.000000	0.112863
205.000000	0.119162
204.000000	0.125784
203.000000	0.133853
202.000000	0.142867
201.000000	0.153327
200.000000	0.165670
