PE UV       SUBTECH     SPECTRUM    ASCII       PEDS        4.00        
   -1
MQ12804_1.Sample.Raw.asc
11/04/28
09:42:21.00
11/04/28
09:42:21.00
Hermanni Kaartokallio

200.000000
1
Lambda 650
650N8121101
PerkinElmer UV WinLab 6.0.2.0723 / 1.61.00 Lambda 650

0
0
2
0
0
UV/VIS
1
1
1
uv/vis/nir detector
0
0
0
0
Fix
 
0
0.24
0
0
0
 
 
 
0
 
0
319.2
0
Front
100
 
 
 
0
0
0
 
0
 
 
 
0
 
 
0
0
0
0
0
 
 
 
 
0
0
#HDR
-1
-1
#GR
nm
A
1.0
0.0
800.000000
-1.000000
601
8
0.101017
0.032632
#DATA
800.000000	0.042969
799.000000	0.043026
798.000000	0.043352
797.000000	0.043050
796.000000	0.043081
795.000000	0.043208
794.000000	0.043347
793.000000	0.043366
792.000000	0.043448
791.000000	0.043757
790.000000	0.043837
789.000000	0.043970
788.000000	0.044188
787.000000	0.044379
786.000000	0.044492
785.000000	0.044677
784.000000	0.044928
783.000000	0.045137
782.000000	0.045118
781.000000	0.045310
780.000000	0.045394
779.000000	0.045735
778.000000	0.045690
777.000000	0.045831
776.000000	0.046034
775.000000	0.045940
774.000000	0.045963
773.000000	0.046090
772.000000	0.046134
771.000000	0.046068
770.000000	0.046085
769.000000	0.046216
768.000000	0.046297
767.000000	0.046294
766.000000	0.046389
765.000000	0.046489
764.000000	0.046440
763.000000	0.046558
762.000000	0.046521
761.000000	0.046501
760.000000	0.046521
759.000000	0.046568
758.000000	0.046522
757.000000	0.046458
756.000000	0.046406
755.000000	0.046516
754.000000	0.046333
753.000000	0.046137
752.000000	0.046247
751.000000	0.046185
750.000000	0.046057
749.000000	0.045903
748.000000	0.045927
747.000000	0.045864
746.000000	0.045652
745.000000	0.045506
744.000000	0.045506
743.000000	0.045204
742.000000	0.044640
741.000000	0.044495
740.000000	0.044293
739.000000	0.044037
738.000000	0.043776
737.000000	0.043484
736.000000	0.043159
735.000000	0.042678
734.000000	0.042158
733.000000	0.041642
732.000000	0.041062
731.000000	0.040587
730.000000	0.040149
729.000000	0.039668
728.000000	0.039254
727.000000	0.038949
726.000000	0.038642
725.000000	0.038321
724.000000	0.038086
723.000000	0.037998
722.000000	0.037776
721.000000	0.037470
720.000000	0.037266
719.000000	0.037150
718.000000	0.037061
717.000000	0.036889
716.000000	0.036749
715.000000	0.036547
714.000000	0.036295
713.000000	0.036155
712.000000	0.036025
711.000000	0.035901
710.000000	0.035729
709.000000	0.035623
708.000000	0.035536
707.000000	0.035373
706.000000	0.035219
705.000000	0.035142
704.000000	0.035040
703.000000	0.034865
702.000000	0.034790
701.000000	0.034813
700.000000	0.034817
699.000000	0.034793
698.000000	0.034811
697.000000	0.034786
696.000000	0.034700
695.000000	0.034706
694.000000	0.034805
693.000000	0.034859
692.000000	0.034777
691.000000	0.034735
690.000000	0.034741
689.000000	0.034692
688.000000	0.034613
687.000000	0.034591
686.000000	0.034523
685.000000	0.034424
684.000000	0.034396
683.000000	0.034389
682.000000	0.034202
681.000000	0.034074
680.000000	0.034021
679.000000	0.033865
678.000000	0.033712
677.000000	0.033569
676.000000	0.033465
675.000000	0.033385
674.000000	0.033278
673.000000	0.033252
672.000000	0.033139
671.000000	0.032996
670.000000	0.032900
669.000000	0.032909
668.000000	0.032824
667.000000	0.032687
666.000000	0.032707
665.000000	0.032756
664.000000	0.032670
663.000000	0.032632
662.000000	0.032730
661.000000	0.032726
660.000000	0.032710
659.000000	0.032757
658.000000	0.032721
657.000000	0.032715
656.000000	0.032713
655.000000	0.032778
654.000000	0.032856
653.000000	0.032832
652.000000	0.032886
651.000000	0.033029
650.000000	0.033115
649.000000	0.033112
648.000000	0.033199
647.000000	0.033335
646.000000	0.033415
645.000000	0.033466
644.000000	0.033580
643.000000	0.033606
642.000000	0.033586
641.000000	0.033603
640.000000	0.033660
639.000000	0.033631
638.000000	0.033582
637.000000	0.033596
636.000000	0.033520
635.000000	0.033575
634.000000	0.033598
633.000000	0.033617
632.000000	0.033654
631.000000	0.033744
630.000000	0.033755
629.000000	0.033758
628.000000	0.033706
627.000000	0.033725
626.000000	0.033823
625.000000	0.033877
624.000000	0.033916
623.000000	0.033958
622.000000	0.034050
621.000000	0.034042
620.000000	0.034097
619.000000	0.034214
618.000000	0.034284
617.000000	0.034284
616.000000	0.034194
615.000000	0.034370
614.000000	0.034442
613.000000	0.034413
612.000000	0.034480
611.000000	0.034537
610.000000	0.034604
609.000000	0.034525
608.000000	0.034593
607.000000	0.034651
606.000000	0.034618
605.000000	0.034590
604.000000	0.034636
603.000000	0.034647
602.000000	0.034616
601.000000	0.034597
600.000000	0.034531
599.000000	0.034442
598.000000	0.034303
597.000000	0.034405
596.000000	0.034520
595.000000	0.034433
594.000000	0.034314
593.000000	0.034387
592.000000	0.034272
591.000000	0.034241
590.000000	0.034161
589.000000	0.034288
588.000000	0.034271
587.000000	0.034264
586.000000	0.034291
585.000000	0.034300
584.000000	0.034237
583.000000	0.034249
582.000000	0.034319
581.000000	0.034337
580.000000	0.034223
579.000000	0.034139
578.000000	0.034328
577.000000	0.034374
576.000000	0.034397
575.000000	0.034356
574.000000	0.034365
573.000000	0.034332
572.000000	0.034362
571.000000	0.034544
570.000000	0.034424
569.000000	0.034465
568.000000	0.034461
567.000000	0.034455
566.000000	0.034408
565.000000	0.034409
564.000000	0.034435
563.000000	0.034423
562.000000	0.034375
561.000000	0.034382
560.000000	0.034347
559.000000	0.034296
558.000000	0.034269
557.000000	0.034278
556.000000	0.034209
555.000000	0.034217
554.000000	0.034162
553.000000	0.034120
552.000000	0.034042
551.000000	0.034010
550.000000	0.034040
549.000000	0.033937
548.000000	0.033811
547.000000	0.033868
546.000000	0.033841
545.000000	0.033823
544.000000	0.033789
543.000000	0.033776
542.000000	0.033617
541.000000	0.033636
540.000000	0.033628
539.000000	0.033612
538.000000	0.033579
537.000000	0.033526
536.000000	0.033549
535.000000	0.033604
534.000000	0.033548
533.000000	0.033537
532.000000	0.033540
531.000000	0.033516
530.000000	0.033545
529.000000	0.033674
528.000000	0.033717
527.000000	0.033664
526.000000	0.033679
525.000000	0.033664
524.000000	0.033729
523.000000	0.033779
522.000000	0.033840
521.000000	0.033918
520.000000	0.033851
519.000000	0.033817
518.000000	0.033907
517.000000	0.033883
516.000000	0.033875
515.000000	0.033972
514.000000	0.034041
513.000000	0.033990
512.000000	0.033912
511.000000	0.033944
510.000000	0.033983
509.000000	0.033958
508.000000	0.033963
507.000000	0.033993
506.000000	0.033956
505.000000	0.033897
504.000000	0.033942
503.000000	0.034050
502.000000	0.034029
501.000000	0.034001
500.000000	0.034049
499.000000	0.034128
498.000000	0.034144
497.000000	0.034154
496.000000	0.034187
495.000000	0.034216
494.000000	0.034236
493.000000	0.034317
492.000000	0.034382
491.000000	0.034400
490.000000	0.034510
489.000000	0.034579
488.000000	0.034656
487.000000	0.034754
486.000000	0.034806
485.000000	0.034885
484.000000	0.034968
483.000000	0.035027
482.000000	0.035034
481.000000	0.035076
480.000000	0.035153
479.000000	0.035188
478.000000	0.035251
477.000000	0.035246
476.000000	0.035273
475.000000	0.035350
474.000000	0.035407
473.000000	0.035360
472.000000	0.035414
471.000000	0.035426
470.000000	0.035447
469.000000	0.035416
468.000000	0.035467
467.000000	0.035563
466.000000	0.035488
465.000000	0.035492
464.000000	0.035623
463.000000	0.035637
462.000000	0.035534
461.000000	0.035514
460.000000	0.035610
459.000000	0.035596
458.000000	0.035571
457.000000	0.035592
456.000000	0.035670
455.000000	0.035556
454.000000	0.035412
453.000000	0.035524
452.000000	0.035500
451.000000	0.035382
450.000000	0.035435
449.000000	0.035512
448.000000	0.035436
447.000000	0.035335
446.000000	0.035284
445.000000	0.035308
444.000000	0.035269
443.000000	0.035267
442.000000	0.035292
441.000000	0.035210
440.000000	0.035187
439.000000	0.035250
438.000000	0.035316
437.000000	0.035279
436.000000	0.035193
435.000000	0.035229
434.000000	0.035192
433.000000	0.035176
432.000000	0.035236
431.000000	0.035261
430.000000	0.035313
429.000000	0.035163
428.000000	0.035277
427.000000	0.035324
426.000000	0.035288
425.000000	0.035335
424.000000	0.035430
423.000000	0.035329
422.000000	0.035257
421.000000	0.035336
420.000000	0.035372
419.000000	0.035372
418.000000	0.035267
417.000000	0.035275
416.000000	0.035287
415.000000	0.035298
414.000000	0.035325
413.000000	0.035386
412.000000	0.035420
411.000000	0.035254
410.000000	0.035351
409.000000	0.035426
408.000000	0.035330
407.000000	0.035407
406.000000	0.035422
405.000000	0.035356
404.000000	0.035281
403.000000	0.035390
402.000000	0.035449
401.000000	0.035391
400.000000	0.035365
399.000000	0.035360
398.000000	0.035503
397.000000	0.035394
396.000000	0.035367
395.000000	0.035558
394.000000	0.035490
393.000000	0.035492
392.000000	0.035463
391.000000	0.035760
390.000000	0.035734
389.000000	0.035661
388.000000	0.035856
387.000000	0.035823
386.000000	0.035802
385.000000	0.035794
384.000000	0.036030
383.000000	0.035980
382.000000	0.035999
381.000000	0.036114
380.000000	0.036331
379.000000	0.036235
378.000000	0.036366
377.000000	0.036408
376.000000	0.036386
375.000000	0.036420
374.000000	0.036608
373.000000	0.036635
372.000000	0.036703
371.000000	0.036816
370.000000	0.036880
369.000000	0.036820
368.000000	0.037015
367.000000	0.037122
366.000000	0.037240
365.000000	0.037006
364.000000	0.037301
363.000000	0.037300
362.000000	0.037313
361.000000	0.037347
360.000000	0.037426
359.000000	0.037514
358.000000	0.037581
357.000000	0.037525
356.000000	0.037590
355.000000	0.037632
354.000000	0.037682
353.000000	0.037670
352.000000	0.037769
351.000000	0.037777
350.000000	0.037780
349.000000	0.037863
348.000000	0.037901
347.000000	0.037884
346.000000	0.037928
345.000000	0.038063
344.000000	0.038009
343.000000	0.038020
342.000000	0.038115
341.000000	0.038094
340.000000	0.038090
339.000000	0.038165
338.000000	0.038253
337.000000	0.038240
336.000000	0.038305
335.000000	0.038241
334.000000	0.038365
333.000000	0.038392
332.000000	0.038360
331.000000	0.038389
330.000000	0.038501
329.000000	0.038429
328.000000	0.038461
327.000000	0.038566
326.000000	0.038664
325.000000	0.038646
324.000000	0.038748
323.000000	0.038820
322.000000	0.038802
321.000000	0.038817
320.000000	0.038915
319.000000	0.038931
318.000000	0.039154
317.000000	0.039797
316.000000	0.039813
315.000000	0.040001
314.000000	0.040164
313.000000	0.040173
312.000000	0.040202
311.000000	0.040268
310.000000	0.040417
309.000000	0.040569
308.000000	0.040542
307.000000	0.040768
306.000000	0.040968
305.000000	0.040865
304.000000	0.040900
303.000000	0.041021
302.000000	0.041104
301.000000	0.041244
300.000000	0.041300
299.000000	0.041432
298.000000	0.041519
297.000000	0.041621
296.000000	0.041689
295.000000	0.041853
294.000000	0.041932
293.000000	0.042021
292.000000	0.042206
291.000000	0.042301
290.000000	0.042376
289.000000	0.042578
288.000000	0.042755
287.000000	0.042756
286.000000	0.042827
285.000000	0.043014
284.000000	0.043099
283.000000	0.043173
282.000000	0.043294
281.000000	0.043396
280.000000	0.043448
279.000000	0.043582
278.000000	0.043770
277.000000	0.043928
276.000000	0.044028
275.000000	0.044126
274.000000	0.044305
273.000000	0.044394
272.000000	0.044435
271.000000	0.044623
270.000000	0.044792
269.000000	0.044781
268.000000	0.044950
267.000000	0.045172
266.000000	0.045307
265.000000	0.045333
264.000000	0.045454
263.000000	0.045549
262.000000	0.045621
261.000000	0.045801
260.000000	0.045970
259.000000	0.046139
258.000000	0.046243
257.000000	0.046266
256.000000	0.046527
255.000000	0.046728
254.000000	0.046862
253.000000	0.047106
252.000000	0.047316
251.000000	0.047424
250.000000	0.047617
249.000000	0.047964
248.000000	0.048192
247.000000	0.048417
246.000000	0.048681
245.000000	0.049067
244.000000	0.049390
243.000000	0.049601
242.000000	0.049963
241.000000	0.050359
240.000000	0.050680
239.000000	0.050911
238.000000	0.051299
237.000000	0.051773
236.000000	0.052095
235.000000	0.052558
234.000000	0.053045
233.000000	0.053379
232.000000	0.053908
231.000000	0.054472
230.000000	0.054861
229.000000	0.055341
228.000000	0.055742
227.000000	0.056185
226.000000	0.056705
225.000000	0.057222
224.000000	0.057828
223.000000	0.058498
222.000000	0.058895
221.000000	0.059540
220.000000	0.060459
219.000000	0.061176
218.000000	0.061978
217.000000	0.062949
216.000000	0.064010
215.000000	0.064978
214.000000	0.066131
213.000000	0.067589
212.000000	0.068861
211.000000	0.070416
210.000000	0.072178
209.000000	0.073985
208.000000	0.075944
207.000000	0.078141
206.000000	0.080607
205.000000	0.083368
204.000000	0.086207
203.000000	0.089240
202.000000	0.093171
201.000000	0.096886
200.000000	0.101017
