PE UV       SUBTECH     SPECTRUM    ASCII       PEDS        4.00        
   -1
MQ22804_1.Sample.Raw.asc
11/04/28
09:46:41.00
11/04/28
09:46:41.00
Hermanni Kaartokallio

200.000000
1
Lambda 650
650N8121101
PerkinElmer UV WinLab 6.0.2.0723 / 1.61.00 Lambda 650

0
0
2
0
0
UV/VIS
1
1
1
uv/vis/nir detector
0
0
0
0
Fix
 
0
0.24
0
0
0
 
 
 
0
 
0
319.2
0
Front
100
 
 
 
0
0
0
 
0
 
 
 
0
 
 
0
0
0
0
0
 
 
 
 
0
0
#HDR
-1
-1
#GR
nm
A
1.0
0.0
800.000000
-1.000000
601
8
0.099264
0.033229
#DATA
800.000000	0.043316
799.000000	0.043429
798.000000	0.043376
797.000000	0.043223
796.000000	0.043351
795.000000	0.043471
794.000000	0.043680
793.000000	0.043639
792.000000	0.043727
791.000000	0.043923
790.000000	0.044040
789.000000	0.044189
788.000000	0.044484
787.000000	0.044615
786.000000	0.044662
785.000000	0.044927
784.000000	0.045093
783.000000	0.045266
782.000000	0.045293
781.000000	0.045523
780.000000	0.045552
779.000000	0.045707
778.000000	0.045897
777.000000	0.046039
776.000000	0.046090
775.000000	0.046168
774.000000	0.046099
773.000000	0.046193
772.000000	0.046153
771.000000	0.046192
770.000000	0.046298
769.000000	0.046251
768.000000	0.046170
767.000000	0.046289
766.000000	0.046512
765.000000	0.046487
764.000000	0.046429
763.000000	0.046634
762.000000	0.046646
761.000000	0.046601
760.000000	0.046583
759.000000	0.046717
758.000000	0.046645
757.000000	0.046627
756.000000	0.046595
755.000000	0.046657
754.000000	0.046391
753.000000	0.046253
752.000000	0.046352
751.000000	0.046262
750.000000	0.046123
749.000000	0.046063
748.000000	0.046100
747.000000	0.045977
746.000000	0.045801
745.000000	0.045724
744.000000	0.045626
743.000000	0.045514
742.000000	0.045311
741.000000	0.045201
740.000000	0.045021
739.000000	0.044723
738.000000	0.044498
737.000000	0.044291
736.000000	0.043901
735.000000	0.043425
734.000000	0.043034
733.000000	0.042409
732.000000	0.041709
731.000000	0.041227
730.000000	0.040876
729.000000	0.040357
728.000000	0.039902
727.000000	0.039608
726.000000	0.039275
725.000000	0.038940
724.000000	0.038707
723.000000	0.038597
722.000000	0.038428
721.000000	0.038156
720.000000	0.037928
719.000000	0.037790
718.000000	0.037614
717.000000	0.037432
716.000000	0.037246
715.000000	0.037023
714.000000	0.036788
713.000000	0.036706
712.000000	0.036670
711.000000	0.036459
710.000000	0.036249
709.000000	0.036161
708.000000	0.036117
707.000000	0.035970
706.000000	0.035897
705.000000	0.035899
704.000000	0.035734
703.000000	0.035526
702.000000	0.035443
701.000000	0.035510
700.000000	0.035530
699.000000	0.035489
698.000000	0.035500
697.000000	0.035456
696.000000	0.035382
695.000000	0.035418
694.000000	0.035479
693.000000	0.035457
692.000000	0.035398
691.000000	0.035367
690.000000	0.035381
689.000000	0.035278
688.000000	0.035196
687.000000	0.035172
686.000000	0.035064
685.000000	0.035010
684.000000	0.035014
683.000000	0.034953
682.000000	0.034767
681.000000	0.034653
680.000000	0.034634
679.000000	0.034469
678.000000	0.034280
677.000000	0.034190
676.000000	0.034118
675.000000	0.033956
674.000000	0.033828
673.000000	0.033825
672.000000	0.033712
671.000000	0.033597
670.000000	0.033521
669.000000	0.033426
668.000000	0.033391
667.000000	0.033331
666.000000	0.033351
665.000000	0.033332
664.000000	0.033229
663.000000	0.033236
662.000000	0.033281
661.000000	0.033288
660.000000	0.033281
659.000000	0.033318
658.000000	0.033272
657.000000	0.033244
656.000000	0.033251
655.000000	0.033362
654.000000	0.033391
653.000000	0.033327
652.000000	0.033435
651.000000	0.033539
650.000000	0.033569
649.000000	0.033583
648.000000	0.033637
647.000000	0.033754
646.000000	0.033698
645.000000	0.033732
644.000000	0.033810
643.000000	0.033833
642.000000	0.033818
641.000000	0.033801
640.000000	0.033881
639.000000	0.033803
638.000000	0.033830
637.000000	0.033895
636.000000	0.033875
635.000000	0.033897
634.000000	0.033854
633.000000	0.033920
632.000000	0.033954
631.000000	0.033918
630.000000	0.033998
629.000000	0.034041
628.000000	0.033938
627.000000	0.033972
626.000000	0.034079
625.000000	0.034161
624.000000	0.034155
623.000000	0.034183
622.000000	0.034257
621.000000	0.034291
620.000000	0.034348
619.000000	0.034456
618.000000	0.034473
617.000000	0.034428
616.000000	0.034435
615.000000	0.034585
614.000000	0.034634
613.000000	0.034584
612.000000	0.034730
611.000000	0.034739
610.000000	0.034675
609.000000	0.034697
608.000000	0.034805
607.000000	0.034859
606.000000	0.034757
605.000000	0.034762
604.000000	0.034800
603.000000	0.034787
602.000000	0.034786
601.000000	0.034766
600.000000	0.034780
599.000000	0.034561
598.000000	0.034568
597.000000	0.034637
596.000000	0.034603
595.000000	0.034495
594.000000	0.034499
593.000000	0.034498
592.000000	0.034399
591.000000	0.034233
590.000000	0.034360
589.000000	0.034365
588.000000	0.034344
587.000000	0.034379
586.000000	0.034444
585.000000	0.034343
584.000000	0.034335
583.000000	0.034380
582.000000	0.034419
581.000000	0.034335
580.000000	0.034389
579.000000	0.034386
578.000000	0.034436
577.000000	0.034392
576.000000	0.034420
575.000000	0.034542
574.000000	0.034447
573.000000	0.034420
572.000000	0.034516
571.000000	0.034675
570.000000	0.034552
569.000000	0.034574
568.000000	0.034607
567.000000	0.034556
566.000000	0.034547
565.000000	0.034625
564.000000	0.034593
563.000000	0.034548
562.000000	0.034464
561.000000	0.034539
560.000000	0.034417
559.000000	0.034392
558.000000	0.034374
557.000000	0.034314
556.000000	0.034216
555.000000	0.034224
554.000000	0.034205
553.000000	0.034099
552.000000	0.034053
551.000000	0.034122
550.000000	0.034073
549.000000	0.033925
548.000000	0.033858
547.000000	0.033956
546.000000	0.033896
545.000000	0.033857
544.000000	0.033845
543.000000	0.033800
542.000000	0.033707
541.000000	0.033670
540.000000	0.033702
539.000000	0.033680
538.000000	0.033647
537.000000	0.033618
536.000000	0.033677
535.000000	0.033654
534.000000	0.033620
533.000000	0.033699
532.000000	0.033725
531.000000	0.033695
530.000000	0.033683
529.000000	0.033811
528.000000	0.033840
527.000000	0.033746
526.000000	0.033822
525.000000	0.033865
524.000000	0.033830
523.000000	0.033889
522.000000	0.033981
521.000000	0.034060
520.000000	0.034004
519.000000	0.033992
518.000000	0.034079
517.000000	0.034091
516.000000	0.034022
515.000000	0.034102
514.000000	0.034164
513.000000	0.034087
512.000000	0.034028
511.000000	0.034104
510.000000	0.034088
509.000000	0.034023
508.000000	0.034047
507.000000	0.034087
506.000000	0.034076
505.000000	0.034048
504.000000	0.034099
503.000000	0.034202
502.000000	0.034257
501.000000	0.034264
500.000000	0.034239
499.000000	0.034291
498.000000	0.034239
497.000000	0.034262
496.000000	0.034336
495.000000	0.034363
494.000000	0.034413
493.000000	0.034505
492.000000	0.034572
491.000000	0.034569
490.000000	0.034644
489.000000	0.034728
488.000000	0.034794
487.000000	0.034871
486.000000	0.034965
485.000000	0.035060
484.000000	0.035049
483.000000	0.035049
482.000000	0.035143
481.000000	0.035227
480.000000	0.035189
479.000000	0.035236
478.000000	0.035328
477.000000	0.035298
476.000000	0.035331
475.000000	0.035420
474.000000	0.035468
473.000000	0.035442
472.000000	0.035568
471.000000	0.035565
470.000000	0.035484
469.000000	0.035503
468.000000	0.035590
467.000000	0.035627
466.000000	0.035585
465.000000	0.035535
464.000000	0.035592
463.000000	0.035631
462.000000	0.035592
461.000000	0.035589
460.000000	0.035666
459.000000	0.035633
458.000000	0.035509
457.000000	0.035572
456.000000	0.035645
455.000000	0.035522
454.000000	0.035430
453.000000	0.035457
452.000000	0.035377
451.000000	0.035330
450.000000	0.035424
449.000000	0.035498
448.000000	0.035380
447.000000	0.035330
446.000000	0.035390
445.000000	0.035408
444.000000	0.035307
443.000000	0.035298
442.000000	0.035376
441.000000	0.035215
440.000000	0.035173
439.000000	0.035332
438.000000	0.035300
437.000000	0.035193
436.000000	0.035182
435.000000	0.035211
434.000000	0.035115
433.000000	0.035149
432.000000	0.035236
431.000000	0.035241
430.000000	0.035199
429.000000	0.035125
428.000000	0.035245
427.000000	0.035322
426.000000	0.035237
425.000000	0.035247
424.000000	0.035333
423.000000	0.035202
422.000000	0.035199
421.000000	0.035299
420.000000	0.035299
419.000000	0.035217
418.000000	0.035235
417.000000	0.035303
416.000000	0.035351
415.000000	0.035265
414.000000	0.035288
413.000000	0.035339
412.000000	0.035349
411.000000	0.035247
410.000000	0.035354
409.000000	0.035322
408.000000	0.035264
407.000000	0.035295
406.000000	0.035296
405.000000	0.035189
404.000000	0.035220
403.000000	0.035291
402.000000	0.035407
401.000000	0.035272
400.000000	0.035316
399.000000	0.035293
398.000000	0.035302
397.000000	0.035253
396.000000	0.035332
395.000000	0.035528
394.000000	0.035403
393.000000	0.035340
392.000000	0.035429
391.000000	0.035615
390.000000	0.035481
389.000000	0.035518
388.000000	0.035703
387.000000	0.035646
386.000000	0.035638
385.000000	0.035726
384.000000	0.035990
383.000000	0.035918
382.000000	0.035904
381.000000	0.036027
380.000000	0.036224
379.000000	0.036195
378.000000	0.036210
377.000000	0.036255
376.000000	0.036142
375.000000	0.036304
374.000000	0.036409
373.000000	0.036526
372.000000	0.036467
371.000000	0.036692
370.000000	0.036729
369.000000	0.036646
368.000000	0.036834
367.000000	0.036911
366.000000	0.036955
365.000000	0.036813
364.000000	0.037106
363.000000	0.037128
362.000000	0.037157
361.000000	0.037163
360.000000	0.037249
359.000000	0.037265
358.000000	0.037319
357.000000	0.037358
356.000000	0.037473
355.000000	0.037418
354.000000	0.037392
353.000000	0.037414
352.000000	0.037515
351.000000	0.037563
350.000000	0.037539
349.000000	0.037578
348.000000	0.037582
347.000000	0.037518
346.000000	0.037600
345.000000	0.037795
344.000000	0.037737
343.000000	0.037713
342.000000	0.037827
341.000000	0.037762
340.000000	0.037755
339.000000	0.037815
338.000000	0.037884
337.000000	0.037895
336.000000	0.037841
335.000000	0.037868
334.000000	0.038022
333.000000	0.038046
332.000000	0.038039
331.000000	0.038173
330.000000	0.038148
329.000000	0.038032
328.000000	0.038056
327.000000	0.038193
326.000000	0.038262
325.000000	0.038187
324.000000	0.038330
323.000000	0.038443
322.000000	0.038461
321.000000	0.038490
320.000000	0.038504
319.000000	0.038533
318.000000	0.038756
317.000000	0.039401
316.000000	0.039418
315.000000	0.039549
314.000000	0.039637
313.000000	0.039683
312.000000	0.039744
311.000000	0.039872
310.000000	0.039948
309.000000	0.040063
308.000000	0.040173
307.000000	0.040302
306.000000	0.040378
305.000000	0.040300
304.000000	0.040382
303.000000	0.040542
302.000000	0.040571
301.000000	0.040698
300.000000	0.040864
299.000000	0.040995
298.000000	0.040980
297.000000	0.041171
296.000000	0.041360
295.000000	0.041450
294.000000	0.041433
293.000000	0.041580
292.000000	0.041761
291.000000	0.041830
290.000000	0.041958
289.000000	0.042191
288.000000	0.042243
287.000000	0.042224
286.000000	0.042334
285.000000	0.042531
284.000000	0.042657
283.000000	0.042762
282.000000	0.042886
281.000000	0.042999
280.000000	0.043081
279.000000	0.043183
278.000000	0.043348
277.000000	0.043472
276.000000	0.043526
275.000000	0.043606
274.000000	0.043791
273.000000	0.043860
272.000000	0.043915
271.000000	0.044065
270.000000	0.044220
269.000000	0.044211
268.000000	0.044353
267.000000	0.044634
266.000000	0.044722
265.000000	0.044740
264.000000	0.044923
263.000000	0.045036
262.000000	0.045082
261.000000	0.045292
260.000000	0.045453
259.000000	0.045569
258.000000	0.045625
257.000000	0.045707
256.000000	0.045936
255.000000	0.046098
254.000000	0.046316
253.000000	0.046561
252.000000	0.046703
251.000000	0.046858
250.000000	0.047068
249.000000	0.047420
248.000000	0.047526
247.000000	0.047743
246.000000	0.048098
245.000000	0.048478
244.000000	0.048691
243.000000	0.048973
242.000000	0.049371
241.000000	0.049667
240.000000	0.050001
239.000000	0.050358
238.000000	0.050729
237.000000	0.051073
236.000000	0.051326
235.000000	0.051863
234.000000	0.052324
233.000000	0.052686
232.000000	0.053155
231.000000	0.053658
230.000000	0.054108
229.000000	0.054542
228.000000	0.055007
227.000000	0.055503
226.000000	0.055964
225.000000	0.056398
224.000000	0.057095
223.000000	0.057695
222.000000	0.058150
221.000000	0.058702
220.000000	0.059482
219.000000	0.060212
218.000000	0.061114
217.000000	0.062035
216.000000	0.062979
215.000000	0.063882
214.000000	0.065018
213.000000	0.066419
212.000000	0.067720
211.000000	0.069092
210.000000	0.070807
209.000000	0.072613
208.000000	0.074352
207.000000	0.076703
206.000000	0.078973
205.000000	0.081763
204.000000	0.084613
203.000000	0.087613
202.000000	0.091191
201.000000	0.095223
200.000000	0.099264
