PE UV       SUBTECH     SPECTRUM    ASCII       PEDS        4.00        
   -1
MQ32804_1.Sample.Raw.asc
11/04/28
10:42:24.00
11/04/28
10:42:24.00
Hermanni Kaartokallio

200.000000
1
Lambda 650
650N8121101
PerkinElmer UV WinLab 6.0.2.0723 / 1.61.00 Lambda 650

0
0
2
0
0
UV/VIS
1
1
1
uv/vis/nir detector
0
0
0
0
Fix
 
0
0.24
0
0
0
 
 
 
0
 
0
319.2
0
Front
100
 
 
 
0
0
0
 
0
 
 
 
0
 
 
0
0
0
0
0
 
 
 
 
0
0
#HDR
-1
-1
#GR
nm
A
1.0
0.0
800.000000
-1.000000
601
8
0.100112
0.035195
#DATA
800.000000	0.045239
799.000000	0.045317
798.000000	0.045334
797.000000	0.045335
796.000000	0.045172
795.000000	0.045267
794.000000	0.045417
793.000000	0.045379
792.000000	0.045422
791.000000	0.045738
790.000000	0.045938
789.000000	0.046073
788.000000	0.046166
787.000000	0.046309
786.000000	0.046472
785.000000	0.046612
784.000000	0.046756
783.000000	0.047002
782.000000	0.047117
781.000000	0.047241
780.000000	0.047299
779.000000	0.047553
778.000000	0.047636
777.000000	0.047674
776.000000	0.047753
775.000000	0.047731
774.000000	0.047712
773.000000	0.047842
772.000000	0.047910
771.000000	0.047921
770.000000	0.047907
769.000000	0.047956
768.000000	0.048041
767.000000	0.047952
766.000000	0.048119
765.000000	0.048182
764.000000	0.048162
763.000000	0.048291
762.000000	0.048212
761.000000	0.048213
760.000000	0.048330
759.000000	0.048408
758.000000	0.048451
757.000000	0.048420
756.000000	0.048302
755.000000	0.048379
754.000000	0.048437
753.000000	0.048261
752.000000	0.048254
751.000000	0.048220
750.000000	0.048176
749.000000	0.048020
748.000000	0.048015
747.000000	0.047981
746.000000	0.047778
745.000000	0.047585
744.000000	0.047489
743.000000	0.047416
742.000000	0.047292
741.000000	0.047014
740.000000	0.046676
739.000000	0.046460
738.000000	0.046217
737.000000	0.045819
736.000000	0.045575
735.000000	0.045119
734.000000	0.044614
733.000000	0.044093
732.000000	0.043458
731.000000	0.042856
730.000000	0.042360
729.000000	0.041889
728.000000	0.041471
727.000000	0.041116
726.000000	0.040712
725.000000	0.040515
724.000000	0.040302
723.000000	0.040131
722.000000	0.039945
721.000000	0.039701
720.000000	0.039455
719.000000	0.039265
718.000000	0.039224
717.000000	0.039074
716.000000	0.038846
715.000000	0.038584
714.000000	0.038409
713.000000	0.038277
712.000000	0.038120
711.000000	0.037968
710.000000	0.037791
709.000000	0.037678
708.000000	0.037605
707.000000	0.037503
706.000000	0.037373
705.000000	0.037212
704.000000	0.037102
703.000000	0.037008
702.000000	0.036982
701.000000	0.036947
700.000000	0.036854
699.000000	0.036962
698.000000	0.037085
697.000000	0.036950
696.000000	0.036879
695.000000	0.036905
694.000000	0.036973
693.000000	0.037004
692.000000	0.037024
691.000000	0.037037
690.000000	0.036940
689.000000	0.036966
688.000000	0.036930
687.000000	0.036839
686.000000	0.036846
685.000000	0.036839
684.000000	0.036764
683.000000	0.036716
682.000000	0.036603
681.000000	0.036495
680.000000	0.036489
679.000000	0.036418
678.000000	0.036280
677.000000	0.036146
676.000000	0.036091
675.000000	0.035936
674.000000	0.035799
673.000000	0.035747
672.000000	0.035630
671.000000	0.035558
670.000000	0.035468
669.000000	0.035371
668.000000	0.035345
667.000000	0.035310
666.000000	0.035243
665.000000	0.035225
664.000000	0.035197
663.000000	0.035210
662.000000	0.035265
661.000000	0.035277
660.000000	0.035368
659.000000	0.035339
658.000000	0.035241
657.000000	0.035254
656.000000	0.035292
655.000000	0.035266
654.000000	0.035295
653.000000	0.035393
652.000000	0.035455
651.000000	0.035501
650.000000	0.035584
649.000000	0.035634
648.000000	0.035701
647.000000	0.035776
646.000000	0.035725
645.000000	0.035798
644.000000	0.035861
643.000000	0.035851
642.000000	0.035872
641.000000	0.035823
640.000000	0.035758
639.000000	0.035786
638.000000	0.035757
637.000000	0.035747
636.000000	0.035664
635.000000	0.035703
634.000000	0.035647
633.000000	0.035590
632.000000	0.035652
631.000000	0.035761
630.000000	0.035763
629.000000	0.035733
628.000000	0.035683
627.000000	0.035791
626.000000	0.035822
625.000000	0.035824
624.000000	0.035846
623.000000	0.035850
622.000000	0.035957
621.000000	0.035928
620.000000	0.036052
619.000000	0.036110
618.000000	0.036149
617.000000	0.036148
616.000000	0.036194
615.000000	0.036219
614.000000	0.036302
613.000000	0.036369
612.000000	0.036422
611.000000	0.036411
610.000000	0.036422
609.000000	0.036440
608.000000	0.036540
607.000000	0.036539
606.000000	0.036564
605.000000	0.036524
604.000000	0.036488
603.000000	0.036395
602.000000	0.036428
601.000000	0.036425
600.000000	0.036367
599.000000	0.036283
598.000000	0.036291
597.000000	0.036097
596.000000	0.036115
595.000000	0.036089
594.000000	0.036074
593.000000	0.036051
592.000000	0.035983
591.000000	0.035897
590.000000	0.035949
589.000000	0.035976
588.000000	0.035989
587.000000	0.035963
586.000000	0.035920
585.000000	0.035928
584.000000	0.035955
583.000000	0.035976
582.000000	0.035833
581.000000	0.035962
580.000000	0.035999
579.000000	0.035903
578.000000	0.035897
577.000000	0.035967
576.000000	0.036047
575.000000	0.035989
574.000000	0.035974
573.000000	0.036010
572.000000	0.036112
571.000000	0.036196
570.000000	0.036133
569.000000	0.036147
568.000000	0.036133
567.000000	0.036116
566.000000	0.036146
565.000000	0.036263
564.000000	0.036172
563.000000	0.036095
562.000000	0.036077
561.000000	0.036082
560.000000	0.036015
559.000000	0.036025
558.000000	0.035949
557.000000	0.035876
556.000000	0.035860
555.000000	0.035909
554.000000	0.035779
553.000000	0.035696
552.000000	0.035744
551.000000	0.035705
550.000000	0.035620
549.000000	0.035557
548.000000	0.035479
547.000000	0.035467
546.000000	0.035423
545.000000	0.035400
544.000000	0.035471
543.000000	0.035491
542.000000	0.035308
541.000000	0.035333
540.000000	0.035363
539.000000	0.035279
538.000000	0.035203
537.000000	0.035260
536.000000	0.035295
535.000000	0.035227
534.000000	0.035404
533.000000	0.035274
532.000000	0.035195
531.000000	0.035233
530.000000	0.035303
529.000000	0.035317
528.000000	0.035341
527.000000	0.035355
526.000000	0.035421
525.000000	0.035388
524.000000	0.035338
523.000000	0.035374
522.000000	0.035488
521.000000	0.035499
520.000000	0.035557
519.000000	0.035646
518.000000	0.035584
517.000000	0.035461
516.000000	0.035570
515.000000	0.035645
514.000000	0.035663
513.000000	0.035695
512.000000	0.035600
511.000000	0.035543
510.000000	0.035643
509.000000	0.035630
508.000000	0.035609
507.000000	0.035624
506.000000	0.035600
505.000000	0.035577
504.000000	0.035669
503.000000	0.035665
502.000000	0.035649
501.000000	0.035729
500.000000	0.035708
499.000000	0.035643
498.000000	0.035691
497.000000	0.035750
496.000000	0.035791
495.000000	0.035825
494.000000	0.035833
493.000000	0.035814
492.000000	0.035829
491.000000	0.035881
490.000000	0.036045
489.000000	0.036120
488.000000	0.036073
487.000000	0.036143
486.000000	0.036250
485.000000	0.036274
484.000000	0.036488
483.000000	0.036770
482.000000	0.036729
481.000000	0.036616
480.000000	0.036560
479.000000	0.036543
478.000000	0.036506
477.000000	0.036462
476.000000	0.036498
475.000000	0.036555
474.000000	0.036554
473.000000	0.036583
472.000000	0.036703
471.000000	0.036713
470.000000	0.036571
469.000000	0.036558
468.000000	0.036744
467.000000	0.036797
466.000000	0.036812
465.000000	0.036887
464.000000	0.036876
463.000000	0.036847
462.000000	0.036862
461.000000	0.036919
460.000000	0.036947
459.000000	0.036967
458.000000	0.036869
457.000000	0.036874
456.000000	0.036890
455.000000	0.036797
454.000000	0.036871
453.000000	0.036987
452.000000	0.036759
451.000000	0.036691
450.000000	0.036810
449.000000	0.036839
448.000000	0.036751
447.000000	0.036786
446.000000	0.036727
445.000000	0.036761
444.000000	0.036738
443.000000	0.036769
442.000000	0.036605
441.000000	0.036698
440.000000	0.036585
439.000000	0.036727
438.000000	0.036711
437.000000	0.036633
436.000000	0.036645
435.000000	0.036729
434.000000	0.036459
433.000000	0.036536
432.000000	0.036666
431.000000	0.036600
430.000000	0.036651
429.000000	0.036695
428.000000	0.036668
427.000000	0.036616
426.000000	0.036586
425.000000	0.036647
424.000000	0.036827
423.000000	0.036617
422.000000	0.036639
421.000000	0.036797
420.000000	0.036630
419.000000	0.036508
418.000000	0.036680
417.000000	0.036645
416.000000	0.036640
415.000000	0.036646
414.000000	0.036595
413.000000	0.036595
412.000000	0.036668
411.000000	0.036555
410.000000	0.036519
409.000000	0.036622
408.000000	0.036711
407.000000	0.036514
406.000000	0.036737
405.000000	0.036465
404.000000	0.036669
403.000000	0.036769
402.000000	0.036621
401.000000	0.036659
400.000000	0.036663
399.000000	0.036683
398.000000	0.036436
397.000000	0.036411
396.000000	0.036527
395.000000	0.036826
394.000000	0.036516
393.000000	0.036549
392.000000	0.036604
391.000000	0.036753
390.000000	0.036643
389.000000	0.036766
388.000000	0.036785
387.000000	0.036781
386.000000	0.036760
385.000000	0.037066
384.000000	0.037013
383.000000	0.037036
382.000000	0.037163
381.000000	0.037224
380.000000	0.037205
379.000000	0.037223
378.000000	0.037485
377.000000	0.037283
376.000000	0.037319
375.000000	0.037466
374.000000	0.037635
373.000000	0.037572
372.000000	0.037535
371.000000	0.037809
370.000000	0.037880
369.000000	0.037739
368.000000	0.037978
367.000000	0.038081
366.000000	0.038141
365.000000	0.037800
364.000000	0.038207
363.000000	0.038306
362.000000	0.038256
361.000000	0.038284
360.000000	0.038425
359.000000	0.038339
358.000000	0.038386
357.000000	0.038438
356.000000	0.038649
355.000000	0.038575
354.000000	0.038633
353.000000	0.038698
352.000000	0.038736
351.000000	0.038668
350.000000	0.038708
349.000000	0.038796
348.000000	0.038829
347.000000	0.038918
346.000000	0.039048
345.000000	0.039082
344.000000	0.038881
343.000000	0.038869
342.000000	0.039015
341.000000	0.038978
340.000000	0.038928
339.000000	0.039018
338.000000	0.039144
337.000000	0.039177
336.000000	0.039089
335.000000	0.039113
334.000000	0.039227
333.000000	0.039141
332.000000	0.039180
331.000000	0.039344
330.000000	0.039391
329.000000	0.039285
328.000000	0.039354
327.000000	0.039451
326.000000	0.039561
325.000000	0.039501
324.000000	0.039582
323.000000	0.039616
322.000000	0.039621
321.000000	0.039715
320.000000	0.039754
319.000000	0.039815
318.000000	0.039994
317.000000	0.040799
316.000000	0.040812
315.000000	0.040960
314.000000	0.041108
313.000000	0.041085
312.000000	0.041154
311.000000	0.041296
310.000000	0.041317
309.000000	0.041355
308.000000	0.041529
307.000000	0.041756
306.000000	0.041786
305.000000	0.041761
304.000000	0.041873
303.000000	0.042035
302.000000	0.042021
301.000000	0.042072
300.000000	0.042232
299.000000	0.042277
298.000000	0.042298
297.000000	0.042499
296.000000	0.042690
295.000000	0.042758
294.000000	0.042783
293.000000	0.042975
292.000000	0.043108
291.000000	0.043097
290.000000	0.043256
289.000000	0.043525
288.000000	0.043588
287.000000	0.043596
286.000000	0.043720
285.000000	0.043887
284.000000	0.043958
283.000000	0.044006
282.000000	0.044168
281.000000	0.044303
280.000000	0.044338
279.000000	0.044528
278.000000	0.044699
277.000000	0.044724
276.000000	0.044818
275.000000	0.044912
274.000000	0.045051
273.000000	0.045162
272.000000	0.045213
271.000000	0.045349
270.000000	0.045518
269.000000	0.045527
268.000000	0.045683
267.000000	0.045961
266.000000	0.046079
265.000000	0.046159
264.000000	0.046332
263.000000	0.046401
262.000000	0.046384
261.000000	0.046608
260.000000	0.046810
259.000000	0.046929
258.000000	0.047011
257.000000	0.047135
256.000000	0.047366
255.000000	0.047435
254.000000	0.047631
253.000000	0.047929
252.000000	0.048145
251.000000	0.048299
250.000000	0.048454
249.000000	0.048825
248.000000	0.048979
247.000000	0.049124
246.000000	0.049442
245.000000	0.049833
244.000000	0.050059
243.000000	0.050375
242.000000	0.050749
241.000000	0.051053
240.000000	0.051354
239.000000	0.051776
238.000000	0.052118
237.000000	0.052431
236.000000	0.052781
235.000000	0.053229
234.000000	0.053707
233.000000	0.054050
232.000000	0.054534
231.000000	0.055076
230.000000	0.055497
229.000000	0.055902
228.000000	0.056370
227.000000	0.056938
226.000000	0.057381
225.000000	0.057843
224.000000	0.058435
223.000000	0.059026
222.000000	0.059614
221.000000	0.060170
220.000000	0.060956
219.000000	0.061676
218.000000	0.062432
217.000000	0.063299
216.000000	0.064353
215.000000	0.065258
214.000000	0.066481
213.000000	0.067713
212.000000	0.069040
211.000000	0.070534
210.000000	0.072209
209.000000	0.074100
208.000000	0.075792
207.000000	0.077977
206.000000	0.080475
205.000000	0.083007
204.000000	0.085908
203.000000	0.088814
202.000000	0.092249
201.000000	0.096043
200.000000	0.100112
