PE UV       SUBTECH     SPECTRUM    ASCII       PEDS        4.00        
   -1
TV4-O5A_1.Sample.Raw.asc
11/04/28
10:31:38.00
11/04/28
10:31:38.00
Hermanni Kaartokallio

200.000000
1
Lambda 650
650N8121101
PerkinElmer UV WinLab 6.0.2.0723 / 1.61.00 Lambda 650

0
0
2
0
0
UV/VIS
1
1
1
uv/vis/nir detector
0
0
0
0
Fix
 
0
0.24
0
0
0
 
 
 
0
 
0
319.2
0
Front
100
 
 
 
0
0
0
 
0
 
 
 
0
 
 
0
0
0
0
0
 
 
 
 
0
0
#HDR
-1
-1
#GR
nm
A
1.0
0.0
800.000000
-1.000000
601
8
3.048292
0.035195
#DATA
800.000000	0.045111
799.000000	0.045259
798.000000	0.045165
797.000000	0.045114
796.000000	0.045130
795.000000	0.045078
794.000000	0.045225
793.000000	0.045305
792.000000	0.045294
791.000000	0.045531
790.000000	0.045602
789.000000	0.045788
788.000000	0.046095
787.000000	0.046108
786.000000	0.046239
785.000000	0.046334
784.000000	0.046637
783.000000	0.046776
782.000000	0.046789
781.000000	0.046873
780.000000	0.047016
779.000000	0.047268
778.000000	0.047328
777.000000	0.047519
776.000000	0.047607
775.000000	0.047578
774.000000	0.047508
773.000000	0.047613
772.000000	0.047593
771.000000	0.047566
770.000000	0.047610
769.000000	0.047616
768.000000	0.047787
767.000000	0.047716
766.000000	0.047876
765.000000	0.047958
764.000000	0.047908
763.000000	0.047999
762.000000	0.047955
761.000000	0.047994
760.000000	0.048042
759.000000	0.048098
758.000000	0.048069
757.000000	0.048146
756.000000	0.048129
755.000000	0.048220
754.000000	0.048076
753.000000	0.047878
752.000000	0.047921
751.000000	0.047815
750.000000	0.047779
749.000000	0.047683
748.000000	0.047715
747.000000	0.047626
746.000000	0.047396
745.000000	0.047206
744.000000	0.047108
743.000000	0.047048
742.000000	0.046967
741.000000	0.046755
740.000000	0.046625
739.000000	0.046418
738.000000	0.046130
737.000000	0.045821
736.000000	0.045529
735.000000	0.045026
734.000000	0.044546
733.000000	0.044055
732.000000	0.043461
731.000000	0.042853
730.000000	0.042372
729.000000	0.041805
728.000000	0.041258
727.000000	0.040935
726.000000	0.040557
725.000000	0.040312
724.000000	0.040016
723.000000	0.039824
722.000000	0.039690
721.000000	0.039432
720.000000	0.039168
719.000000	0.039008
718.000000	0.038980
717.000000	0.038790
716.000000	0.038605
715.000000	0.038381
714.000000	0.038175
713.000000	0.038085
712.000000	0.037935
711.000000	0.037731
710.000000	0.037574
709.000000	0.037455
708.000000	0.037342
707.000000	0.037197
706.000000	0.037094
705.000000	0.037028
704.000000	0.036931
703.000000	0.036797
702.000000	0.036721
701.000000	0.036730
700.000000	0.036781
699.000000	0.036793
698.000000	0.036740
697.000000	0.036743
696.000000	0.036821
695.000000	0.036863
694.000000	0.036867
693.000000	0.036903
692.000000	0.036903
691.000000	0.036875
690.000000	0.036877
689.000000	0.036933
688.000000	0.036965
687.000000	0.036912
686.000000	0.036863
685.000000	0.036812
684.000000	0.036742
683.000000	0.036730
682.000000	0.036634
681.000000	0.036527
680.000000	0.036469
679.000000	0.036332
678.000000	0.036221
677.000000	0.036044
676.000000	0.035949
675.000000	0.035877
674.000000	0.035810
673.000000	0.035785
672.000000	0.035679
671.000000	0.035518
670.000000	0.035379
669.000000	0.035386
668.000000	0.035389
667.000000	0.035281
666.000000	0.035249
665.000000	0.035212
664.000000	0.035212
663.000000	0.035262
662.000000	0.035256
661.000000	0.035265
660.000000	0.035283
659.000000	0.035264
658.000000	0.035195
657.000000	0.035231
656.000000	0.035310
655.000000	0.035286
654.000000	0.035337
653.000000	0.035391
652.000000	0.035433
651.000000	0.035502
650.000000	0.035608
649.000000	0.035726
648.000000	0.035724
647.000000	0.035797
646.000000	0.035782
645.000000	0.035721
644.000000	0.035796
643.000000	0.035839
642.000000	0.035916
641.000000	0.035896
640.000000	0.035905
639.000000	0.035914
638.000000	0.035861
637.000000	0.035883
636.000000	0.035863
635.000000	0.035843
634.000000	0.035827
633.000000	0.035808
632.000000	0.035901
631.000000	0.035904
630.000000	0.035906
629.000000	0.035950
628.000000	0.035975
627.000000	0.036154
626.000000	0.036139
625.000000	0.036009
624.000000	0.036123
623.000000	0.036132
622.000000	0.036150
621.000000	0.036316
620.000000	0.036481
619.000000	0.036538
618.000000	0.036508
617.000000	0.036496
616.000000	0.036427
615.000000	0.036434
614.000000	0.036526
613.000000	0.036582
612.000000	0.036562
611.000000	0.036592
610.000000	0.036661
609.000000	0.036672
608.000000	0.036710
607.000000	0.036763
606.000000	0.036777
605.000000	0.036694
604.000000	0.036817
603.000000	0.036724
602.000000	0.036684
601.000000	0.036711
600.000000	0.036633
599.000000	0.036645
598.000000	0.036601
597.000000	0.036408
596.000000	0.036426
595.000000	0.036403
594.000000	0.036332
593.000000	0.036324
592.000000	0.036349
591.000000	0.036382
590.000000	0.036124
589.000000	0.036311
588.000000	0.036337
587.000000	0.036292
586.000000	0.036392
585.000000	0.036347
584.000000	0.036405
583.000000	0.036239
582.000000	0.036301
581.000000	0.036362
580.000000	0.036403
579.000000	0.036341
578.000000	0.036295
577.000000	0.036377
576.000000	0.036455
575.000000	0.036514
574.000000	0.036521
573.000000	0.036430
572.000000	0.036485
571.000000	0.036631
570.000000	0.036606
569.000000	0.036690
568.000000	0.036713
567.000000	0.036598
566.000000	0.036603
565.000000	0.036686
564.000000	0.036658
563.000000	0.036628
562.000000	0.036577
561.000000	0.036539
560.000000	0.036521
559.000000	0.036669
558.000000	0.036531
557.000000	0.036348
556.000000	0.036554
555.000000	0.036414
554.000000	0.036391
553.000000	0.036298
552.000000	0.036216
551.000000	0.036219
550.000000	0.036300
549.000000	0.036237
548.000000	0.036152
547.000000	0.035966
546.000000	0.036038
545.000000	0.036256
544.000000	0.036064
543.000000	0.035962
542.000000	0.035881
541.000000	0.035848
540.000000	0.035896
539.000000	0.035857
538.000000	0.035883
537.000000	0.035894
536.000000	0.035905
535.000000	0.035835
534.000000	0.035894
533.000000	0.035915
532.000000	0.035913
531.000000	0.035971
530.000000	0.036017
529.000000	0.036061
528.000000	0.036132
527.000000	0.036147
526.000000	0.036161
525.000000	0.036113
524.000000	0.036115
523.000000	0.036138
522.000000	0.036275
521.000000	0.036354
520.000000	0.036424
519.000000	0.036502
518.000000	0.036535
517.000000	0.036585
516.000000	0.036671
515.000000	0.036701
514.000000	0.036624
513.000000	0.036639
512.000000	0.036565
511.000000	0.036638
510.000000	0.036699
509.000000	0.036572
508.000000	0.036580
507.000000	0.036579
506.000000	0.036549
505.000000	0.036575
504.000000	0.036684
503.000000	0.036685
502.000000	0.036741
501.000000	0.036759
500.000000	0.036661
499.000000	0.036705
498.000000	0.036777
497.000000	0.036802
496.000000	0.036899
495.000000	0.036944
494.000000	0.036927
493.000000	0.036975
492.000000	0.037058
491.000000	0.037107
490.000000	0.037262
489.000000	0.037346
488.000000	0.037356
487.000000	0.037495
486.000000	0.037608
485.000000	0.037642
484.000000	0.037705
483.000000	0.037832
482.000000	0.037819
481.000000	0.037814
480.000000	0.037881
479.000000	0.037908
478.000000	0.037999
477.000000	0.038043
476.000000	0.038098
475.000000	0.038137
474.000000	0.038191
473.000000	0.038262
472.000000	0.038392
471.000000	0.038370
470.000000	0.038311
469.000000	0.038341
468.000000	0.038470
467.000000	0.038564
466.000000	0.038599
465.000000	0.038578
464.000000	0.038566
463.000000	0.038570
462.000000	0.038664
461.000000	0.038718
460.000000	0.038872
459.000000	0.038832
458.000000	0.038735
457.000000	0.038792
456.000000	0.038883
455.000000	0.038933
454.000000	0.038943
453.000000	0.038935
452.000000	0.038758
451.000000	0.038841
450.000000	0.039006
449.000000	0.039014
448.000000	0.038999
447.000000	0.039000
446.000000	0.038967
445.000000	0.039089
444.000000	0.039040
443.000000	0.039223
442.000000	0.039255
441.000000	0.039242
440.000000	0.039134
439.000000	0.039203
438.000000	0.039245
437.000000	0.039314
436.000000	0.039405
435.000000	0.039383
434.000000	0.039219
433.000000	0.039366
432.000000	0.039515
431.000000	0.039533
430.000000	0.039593
429.000000	0.039543
428.000000	0.039600
427.000000	0.039734
426.000000	0.039734
425.000000	0.039889
424.000000	0.039991
423.000000	0.039864
422.000000	0.039875
421.000000	0.040170
420.000000	0.040192
419.000000	0.040225
418.000000	0.040327
417.000000	0.040291
416.000000	0.040228
415.000000	0.040350
414.000000	0.040459
413.000000	0.040535
412.000000	0.040680
411.000000	0.040814
410.000000	0.040956
409.000000	0.041077
408.000000	0.041152
407.000000	0.041304
406.000000	0.041313
405.000000	0.041269
404.000000	0.041279
403.000000	0.041487
402.000000	0.041591
401.000000	0.041618
400.000000	0.041781
399.000000	0.041811
398.000000	0.041795
397.000000	0.041910
396.000000	0.042119
395.000000	0.042356
394.000000	0.042288
393.000000	0.042379
392.000000	0.042395
391.000000	0.042721
390.000000	0.042846
389.000000	0.042932
388.000000	0.043202
387.000000	0.043192
386.000000	0.043291
385.000000	0.043597
384.000000	0.043857
383.000000	0.043971
382.000000	0.044247
381.000000	0.044376
380.000000	0.044476
379.000000	0.044724
378.000000	0.045141
377.000000	0.045073
376.000000	0.045220
375.000000	0.045454
374.000000	0.045767
373.000000	0.045860
372.000000	0.046129
371.000000	0.046478
370.000000	0.046597
369.000000	0.046693
368.000000	0.047090
367.000000	0.047284
366.000000	0.047457
365.000000	0.047561
364.000000	0.048035
363.000000	0.048228
362.000000	0.048368
361.000000	0.048625
360.000000	0.048905
359.000000	0.049080
358.000000	0.049384
357.000000	0.049630
356.000000	0.049940
355.000000	0.050105
354.000000	0.050342
353.000000	0.050652
352.000000	0.050905
351.000000	0.051156
350.000000	0.051425
349.000000	0.051683
348.000000	0.051899
347.000000	0.052157
346.000000	0.052545
345.000000	0.052890
344.000000	0.053031
343.000000	0.053417
342.000000	0.053794
341.000000	0.053895
340.000000	0.054145
339.000000	0.054574
338.000000	0.054986
337.000000	0.055257
336.000000	0.055571
335.000000	0.055879
334.000000	0.056291
333.000000	0.056642
332.000000	0.056998
331.000000	0.057503
330.000000	0.057840
329.000000	0.058238
328.000000	0.058754
327.000000	0.059166
326.000000	0.059590
325.000000	0.060092
324.000000	0.060616
323.000000	0.061034
322.000000	0.061426
321.000000	0.061995
320.000000	0.062582
319.000000	0.063024
318.000000	0.063674
317.000000	0.064706
316.000000	0.065293
315.000000	0.066036
314.000000	0.066676
313.000000	0.067149
312.000000	0.067811
311.000000	0.068612
310.000000	0.069241
309.000000	0.070027
308.000000	0.070843
307.000000	0.071636
306.000000	0.072377
305.000000	0.073171
304.000000	0.074025
303.000000	0.074927
302.000000	0.075745
301.000000	0.076750
300.000000	0.077716
299.000000	0.078668
298.000000	0.079672
297.000000	0.080808
296.000000	0.081919
295.000000	0.083034
294.000000	0.084250
293.000000	0.085536
292.000000	0.086796
291.000000	0.088033
290.000000	0.089346
289.000000	0.090767
288.000000	0.092090
287.000000	0.093381
286.000000	0.094796
285.000000	0.096198
284.000000	0.097504
283.000000	0.098948
282.000000	0.100458
281.000000	0.101810
280.000000	0.103125
279.000000	0.104615
278.000000	0.106108
277.000000	0.107513
276.000000	0.108974
275.000000	0.110465
274.000000	0.111949
273.000000	0.113333
272.000000	0.114774
271.000000	0.116222
270.000000	0.117697
269.000000	0.119086
268.000000	0.120567
267.000000	0.122059
266.000000	0.123335
265.000000	0.124690
264.000000	0.126107
263.000000	0.127315
262.000000	0.128507
261.000000	0.129893
260.000000	0.131139
259.000000	0.132311
258.000000	0.133381
257.000000	0.134512
256.000000	0.135731
255.000000	0.136864
254.000000	0.138099
253.000000	0.139362
252.000000	0.140466
251.000000	0.141550
250.000000	0.142799
249.000000	0.144159
248.000000	0.145411
247.000000	0.146844
246.000000	0.148471
245.000000	0.150014
244.000000	0.151587
243.000000	0.153446
242.000000	0.155419
241.000000	0.157420
240.000000	0.159454
239.000000	0.161672
238.000000	0.163969
237.000000	0.166375
236.000000	0.168871
235.000000	0.171782
234.000000	0.174498
233.000000	0.177353
232.000000	0.180443
231.000000	0.183638
230.000000	0.186726
229.000000	0.190150
228.000000	0.193626
227.000000	0.197319
226.000000	0.201372
225.000000	0.205842
224.000000	0.210932
223.000000	0.216564
222.000000	0.223264
221.000000	0.231220
220.000000	0.240740
219.000000	0.252370
218.000000	0.266824
217.000000	0.284813
216.000000	0.307251
215.000000	0.334964
214.000000	0.369687
213.000000	0.412719
212.000000	0.465174
211.000000	0.528638
210.000000	0.605173
209.000000	0.695710
208.000000	0.803332
207.000000	0.931016
206.000000	1.082954
205.000000	1.264629
204.000000	1.482941
203.000000	1.750304
202.000000	2.080474
201.000000	2.497988
200.000000	3.048292
