PE UV       SUBTECH     SPECTRUM    ASCII       PEDS        4.00        
   -1
TV4-04B_1.Sample.Raw.asc
11/04/28
10:27:14.00
11/04/28
10:27:14.00
Hermanni Kaartokallio

200.000000
1
Lambda 650
650N8121101
PerkinElmer UV WinLab 6.0.2.0723 / 1.61.00 Lambda 650

0
0
2
0
0
UV/VIS
1
1
1
uv/vis/nir detector
0
0
0
0
Fix
 
0
0.24
0
0
0
 
 
 
0
 
0
319.2
0
Front
100
 
 
 
0
0
0
 
0
 
 
 
0
 
 
0
0
0
0
0
 
 
 
 
0
0
#HDR
-1
-1
#GR
nm
A
1.0
0.0
800.000000
-1.000000
601
8
3.061500
0.036604
#DATA
800.000000	0.046314
799.000000	0.046451
798.000000	0.046381
797.000000	0.046257
796.000000	0.046150
795.000000	0.046265
794.000000	0.046494
793.000000	0.046442
792.000000	0.046515
791.000000	0.046756
790.000000	0.046935
789.000000	0.046998
788.000000	0.047127
787.000000	0.047357
786.000000	0.047538
785.000000	0.047605
784.000000	0.047891
783.000000	0.048048
782.000000	0.048189
781.000000	0.048287
780.000000	0.048464
779.000000	0.048646
778.000000	0.048718
777.000000	0.048769
776.000000	0.048880
775.000000	0.048934
774.000000	0.048907
773.000000	0.048957
772.000000	0.048971
771.000000	0.048877
770.000000	0.048972
769.000000	0.049012
768.000000	0.049152
767.000000	0.048980
766.000000	0.049189
765.000000	0.049249
764.000000	0.049152
763.000000	0.049294
762.000000	0.049364
761.000000	0.049389
760.000000	0.049444
759.000000	0.049492
758.000000	0.049571
757.000000	0.049562
756.000000	0.049460
755.000000	0.049495
754.000000	0.049369
753.000000	0.049229
752.000000	0.049299
751.000000	0.049231
750.000000	0.049141
749.000000	0.048978
748.000000	0.048975
747.000000	0.048858
746.000000	0.048684
745.000000	0.048600
744.000000	0.048483
743.000000	0.048385
742.000000	0.048270
741.000000	0.048118
740.000000	0.048002
739.000000	0.047705
738.000000	0.047457
737.000000	0.047081
736.000000	0.046743
735.000000	0.046279
734.000000	0.045871
733.000000	0.045360
732.000000	0.044754
731.000000	0.044252
730.000000	0.043853
729.000000	0.043402
728.000000	0.042990
727.000000	0.042617
726.000000	0.042233
725.000000	0.042006
724.000000	0.041822
723.000000	0.041636
722.000000	0.041482
721.000000	0.041240
720.000000	0.040966
719.000000	0.040778
718.000000	0.040720
717.000000	0.040538
716.000000	0.040298
715.000000	0.040088
714.000000	0.039867
713.000000	0.039712
712.000000	0.039608
711.000000	0.039482
710.000000	0.039343
709.000000	0.039192
708.000000	0.039160
707.000000	0.039074
706.000000	0.038925
705.000000	0.038842
704.000000	0.038718
703.000000	0.038555
702.000000	0.038526
701.000000	0.038606
700.000000	0.038659
699.000000	0.038631
698.000000	0.038584
697.000000	0.038554
696.000000	0.038524
695.000000	0.038591
694.000000	0.038671
693.000000	0.038724
692.000000	0.038721
691.000000	0.038679
690.000000	0.038712
689.000000	0.038708
688.000000	0.038636
687.000000	0.038582
686.000000	0.038552
685.000000	0.038492
684.000000	0.038359
683.000000	0.038270
682.000000	0.038157
681.000000	0.038025
680.000000	0.037958
679.000000	0.037839
678.000000	0.037681
677.000000	0.037494
676.000000	0.037476
675.000000	0.037489
674.000000	0.037430
673.000000	0.037239
672.000000	0.036982
671.000000	0.036859
670.000000	0.036777
669.000000	0.036694
668.000000	0.036751
667.000000	0.036683
666.000000	0.036608
665.000000	0.036612
664.000000	0.036610
663.000000	0.036604
662.000000	0.036642
661.000000	0.036704
660.000000	0.036741
659.000000	0.036697
658.000000	0.036648
657.000000	0.036674
656.000000	0.036733
655.000000	0.036753
654.000000	0.036882
653.000000	0.036896
652.000000	0.036901
651.000000	0.036916
650.000000	0.037011
649.000000	0.037095
648.000000	0.037110
647.000000	0.037198
646.000000	0.037253
645.000000	0.037259
644.000000	0.037336
643.000000	0.037280
642.000000	0.037304
641.000000	0.037320
640.000000	0.037330
639.000000	0.037405
638.000000	0.037319
637.000000	0.037369
636.000000	0.037337
635.000000	0.037383
634.000000	0.037428
633.000000	0.037364
632.000000	0.037429
631.000000	0.037394
630.000000	0.037327
629.000000	0.037316
628.000000	0.037389
627.000000	0.037549
626.000000	0.037591
625.000000	0.037570
624.000000	0.037599
623.000000	0.037623
622.000000	0.037649
621.000000	0.037682
620.000000	0.037764
619.000000	0.037762
618.000000	0.037854
617.000000	0.037931
616.000000	0.037868
615.000000	0.038026
614.000000	0.038020
613.000000	0.038177
612.000000	0.038196
611.000000	0.038202
610.000000	0.038156
609.000000	0.038078
608.000000	0.038188
607.000000	0.038308
606.000000	0.038216
605.000000	0.038081
604.000000	0.038116
603.000000	0.038143
602.000000	0.038015
601.000000	0.038067
600.000000	0.038035
599.000000	0.037942
598.000000	0.038117
597.000000	0.037871
596.000000	0.037886
595.000000	0.038059
594.000000	0.037824
593.000000	0.037761
592.000000	0.037885
591.000000	0.037624
590.000000	0.037590
589.000000	0.037693
588.000000	0.037712
587.000000	0.037766
586.000000	0.037760
585.000000	0.037757
584.000000	0.037787
583.000000	0.037736
582.000000	0.037749
581.000000	0.037830
580.000000	0.037825
579.000000	0.037788
578.000000	0.037802
577.000000	0.037873
576.000000	0.037853
575.000000	0.037882
574.000000	0.037825
573.000000	0.037768
572.000000	0.037849
571.000000	0.037899
570.000000	0.037946
569.000000	0.038045
568.000000	0.037965
567.000000	0.038049
566.000000	0.038102
565.000000	0.038173
564.000000	0.038105
563.000000	0.038148
562.000000	0.038101
561.000000	0.038062
560.000000	0.037976
559.000000	0.038062
558.000000	0.038020
557.000000	0.037937
556.000000	0.037985
555.000000	0.037991
554.000000	0.037867
553.000000	0.037835
552.000000	0.037903
551.000000	0.037883
550.000000	0.037828
549.000000	0.037799
548.000000	0.037737
547.000000	0.037676
546.000000	0.037651
545.000000	0.037643
544.000000	0.037589
543.000000	0.037540
542.000000	0.037408
541.000000	0.037419
540.000000	0.037462
539.000000	0.037463
538.000000	0.037498
537.000000	0.037383
536.000000	0.037396
535.000000	0.037458
534.000000	0.037502
533.000000	0.037506
532.000000	0.037511
531.000000	0.037500
530.000000	0.037544
529.000000	0.037682
528.000000	0.037689
527.000000	0.037664
526.000000	0.037670
525.000000	0.037634
524.000000	0.037650
523.000000	0.037682
522.000000	0.037749
521.000000	0.037844
520.000000	0.037882
519.000000	0.037966
518.000000	0.037973
517.000000	0.037992
516.000000	0.038038
515.000000	0.038034
514.000000	0.038034
513.000000	0.038092
512.000000	0.038116
511.000000	0.038163
510.000000	0.038173
509.000000	0.038167
508.000000	0.038199
507.000000	0.038195
506.000000	0.038209
505.000000	0.038221
504.000000	0.038241
503.000000	0.038263
502.000000	0.038266
501.000000	0.038305
500.000000	0.038320
499.000000	0.038331
498.000000	0.038417
497.000000	0.038487
496.000000	0.038514
495.000000	0.038549
494.000000	0.038569
493.000000	0.038641
492.000000	0.038707
491.000000	0.038767
490.000000	0.038833
489.000000	0.038846
488.000000	0.038911
487.000000	0.039060
486.000000	0.039137
485.000000	0.039162
484.000000	0.039180
483.000000	0.039210
482.000000	0.039228
481.000000	0.039342
480.000000	0.039440
479.000000	0.039505
478.000000	0.039563
477.000000	0.039587
476.000000	0.039713
475.000000	0.039768
474.000000	0.039763
473.000000	0.039791
472.000000	0.039835
471.000000	0.039796
470.000000	0.039858
469.000000	0.039950
468.000000	0.040064
467.000000	0.040107
466.000000	0.040140
465.000000	0.040291
464.000000	0.040258
463.000000	0.040222
462.000000	0.040262
461.000000	0.040287
460.000000	0.040378
459.000000	0.040400
458.000000	0.040371
457.000000	0.040395
456.000000	0.040501
455.000000	0.040496
454.000000	0.040453
453.000000	0.040568
452.000000	0.040520
451.000000	0.040548
450.000000	0.040589
449.000000	0.040583
448.000000	0.040593
447.000000	0.040608
446.000000	0.040635
445.000000	0.040694
444.000000	0.040684
443.000000	0.040712
442.000000	0.040673
441.000000	0.040605
440.000000	0.040712
439.000000	0.040835
438.000000	0.040800
437.000000	0.040796
436.000000	0.040857
435.000000	0.040895
434.000000	0.040798
433.000000	0.040979
432.000000	0.041073
431.000000	0.041056
430.000000	0.041096
429.000000	0.041074
428.000000	0.041159
427.000000	0.041241
426.000000	0.041316
425.000000	0.041394
424.000000	0.041402
423.000000	0.041379
422.000000	0.041447
421.000000	0.041519
420.000000	0.041542
419.000000	0.041689
418.000000	0.041825
417.000000	0.041739
416.000000	0.041780
415.000000	0.041947
414.000000	0.042080
413.000000	0.042106
412.000000	0.042206
411.000000	0.042268
410.000000	0.042458
409.000000	0.042444
408.000000	0.042494
407.000000	0.042577
406.000000	0.042667
405.000000	0.042624
404.000000	0.042722
403.000000	0.042842
402.000000	0.042932
401.000000	0.042932
400.000000	0.043036
399.000000	0.043196
398.000000	0.043234
397.000000	0.043313
396.000000	0.043489
395.000000	0.043568
394.000000	0.043634
393.000000	0.043668
392.000000	0.043786
391.000000	0.044057
390.000000	0.044134
389.000000	0.044334
388.000000	0.044474
387.000000	0.044529
386.000000	0.044672
385.000000	0.044855
384.000000	0.045072
383.000000	0.045151
382.000000	0.045415
381.000000	0.045636
380.000000	0.045829
379.000000	0.045956
378.000000	0.046153
377.000000	0.046274
376.000000	0.046401
375.000000	0.046653
374.000000	0.046797
373.000000	0.047026
372.000000	0.047315
371.000000	0.047601
370.000000	0.047737
369.000000	0.047871
368.000000	0.048260
367.000000	0.048438
366.000000	0.048556
365.000000	0.048581
364.000000	0.049160
363.000000	0.049273
362.000000	0.049555
361.000000	0.049762
360.000000	0.050011
359.000000	0.050239
358.000000	0.050529
357.000000	0.050714
356.000000	0.051018
355.000000	0.051242
354.000000	0.051446
353.000000	0.051790
352.000000	0.051889
351.000000	0.052145
350.000000	0.052501
349.000000	0.052784
348.000000	0.052974
347.000000	0.053279
346.000000	0.053596
345.000000	0.053874
344.000000	0.053990
343.000000	0.054362
342.000000	0.054713
341.000000	0.054911
340.000000	0.055158
339.000000	0.055546
338.000000	0.055945
337.000000	0.056202
336.000000	0.056505
335.000000	0.056834
334.000000	0.057197
333.000000	0.057558
332.000000	0.057989
331.000000	0.058416
330.000000	0.058724
329.000000	0.059057
328.000000	0.059523
327.000000	0.059952
326.000000	0.060382
325.000000	0.060765
324.000000	0.061309
323.000000	0.061724
322.000000	0.062208
321.000000	0.062770
320.000000	0.063206
319.000000	0.063710
318.000000	0.064353
317.000000	0.065598
316.000000	0.066210
315.000000	0.066925
314.000000	0.067578
313.000000	0.068103
312.000000	0.068771
311.000000	0.069551
310.000000	0.070127
309.000000	0.070887
308.000000	0.071684
307.000000	0.072436
306.000000	0.073189
305.000000	0.073990
304.000000	0.074823
303.000000	0.075661
302.000000	0.076503
301.000000	0.077497
300.000000	0.078508
299.000000	0.079401
298.000000	0.080397
297.000000	0.081551
296.000000	0.082600
295.000000	0.083658
294.000000	0.084837
293.000000	0.086133
292.000000	0.087352
291.000000	0.088574
290.000000	0.089903
289.000000	0.091262
288.000000	0.092539
287.000000	0.093801
286.000000	0.095185
285.000000	0.096523
284.000000	0.097840
283.000000	0.099307
282.000000	0.100720
281.000000	0.102031
280.000000	0.103367
279.000000	0.104842
278.000000	0.106276
277.000000	0.107694
276.000000	0.109140
275.000000	0.110583
274.000000	0.112044
273.000000	0.113453
272.000000	0.114917
271.000000	0.116362
270.000000	0.117800
269.000000	0.119152
268.000000	0.120595
267.000000	0.122008
266.000000	0.123295
265.000000	0.124679
264.000000	0.125979
263.000000	0.127149
262.000000	0.128352
261.000000	0.129750
260.000000	0.130950
259.000000	0.132068
258.000000	0.133231
257.000000	0.134331
256.000000	0.135421
255.000000	0.136446
254.000000	0.137662
253.000000	0.138943
252.000000	0.140044
251.000000	0.141133
250.000000	0.142402
249.000000	0.143739
248.000000	0.145029
247.000000	0.146437
246.000000	0.148069
245.000000	0.149630
244.000000	0.151252
243.000000	0.153014
242.000000	0.154940
241.000000	0.156941
240.000000	0.159077
239.000000	0.161212
238.000000	0.163593
237.000000	0.166027
236.000000	0.168520
235.000000	0.171385
234.000000	0.174187
233.000000	0.177140
232.000000	0.180330
231.000000	0.183558
230.000000	0.186737
229.000000	0.190111
228.000000	0.193644
227.000000	0.197322
226.000000	0.201443
225.000000	0.205825
224.000000	0.210820
223.000000	0.216383
222.000000	0.223060
221.000000	0.230848
220.000000	0.240534
219.000000	0.252158
218.000000	0.266655
217.000000	0.284493
216.000000	0.307017
215.000000	0.334865
214.000000	0.369719
213.000000	0.412654
212.000000	0.465298
211.000000	0.529376
210.000000	0.606283
209.000000	0.697679
208.000000	0.805742
207.000000	0.934643
206.000000	1.087806
205.000000	1.269847
204.000000	1.489168
203.000000	1.758117
202.000000	2.089560
201.000000	2.505110
200.000000	3.061500
