PE UV       SUBTECH     SPECTRUM    ASCII       PEDS        4.00        
   -1
TV4-03A_1.Sample.Raw.asc
11/04/28
10:13:44.00
11/04/28
10:13:44.00
Hermanni Kaartokallio

200.000000
1
Lambda 650
650N8121101
PerkinElmer UV WinLab 6.0.2.0723 / 1.61.00 Lambda 650

0
0
2
0
0
UV/VIS
1
1
1
uv/vis/nir detector
0
0
0
0
Fix
 
0
0.24
0
0
0
 
 
 
0
 
0
319.2
0
Front
100
 
 
 
0
0
0
 
0
 
 
 
0
 
 
0
0
0
0
0
 
 
 
 
0
0
#HDR
-1
-1
#GR
nm
A
1.0
0.0
800.000000
-1.000000
601
8
1.829506
0.035177
#DATA
800.000000	0.044581
799.000000	0.044636
798.000000	0.044557
797.000000	0.044436
796.000000	0.044403
795.000000	0.044626
794.000000	0.044684
793.000000	0.044756
792.000000	0.044739
791.000000	0.045038
790.000000	0.045035
789.000000	0.045382
788.000000	0.045494
787.000000	0.045520
786.000000	0.045785
785.000000	0.045997
784.000000	0.046083
783.000000	0.046266
782.000000	0.046382
781.000000	0.046604
780.000000	0.046542
779.000000	0.046821
778.000000	0.047093
777.000000	0.047110
776.000000	0.047101
775.000000	0.047095
774.000000	0.047184
773.000000	0.047171
772.000000	0.047294
771.000000	0.047315
770.000000	0.047261
769.000000	0.047297
768.000000	0.047275
767.000000	0.047293
766.000000	0.047414
765.000000	0.047448
764.000000	0.047395
763.000000	0.047611
762.000000	0.047534
761.000000	0.047607
760.000000	0.047777
759.000000	0.047825
758.000000	0.047681
757.000000	0.047722
756.000000	0.047794
755.000000	0.047770
754.000000	0.047644
753.000000	0.047501
752.000000	0.047538
751.000000	0.047396
750.000000	0.047282
749.000000	0.047174
748.000000	0.047182
747.000000	0.047087
746.000000	0.046954
745.000000	0.046854
744.000000	0.046644
743.000000	0.046551
742.000000	0.046481
741.000000	0.046264
740.000000	0.046132
739.000000	0.045871
738.000000	0.045557
737.000000	0.045112
736.000000	0.044689
735.000000	0.044301
734.000000	0.043922
733.000000	0.043350
732.000000	0.042719
731.000000	0.042248
730.000000	0.041779
729.000000	0.041231
728.000000	0.040897
727.000000	0.040681
726.000000	0.040259
725.000000	0.039943
724.000000	0.039831
723.000000	0.039704
722.000000	0.039461
721.000000	0.039241
720.000000	0.039091
719.000000	0.038927
718.000000	0.038804
717.000000	0.038607
716.000000	0.038451
715.000000	0.038234
714.000000	0.038092
713.000000	0.038043
712.000000	0.037911
711.000000	0.037684
710.000000	0.037419
709.000000	0.037350
708.000000	0.037233
707.000000	0.037067
706.000000	0.036997
705.000000	0.036998
704.000000	0.036893
703.000000	0.036709
702.000000	0.036690
701.000000	0.036718
700.000000	0.036666
699.000000	0.036819
698.000000	0.036992
697.000000	0.036975
696.000000	0.036834
695.000000	0.036830
694.000000	0.036815
693.000000	0.036769
692.000000	0.036835
691.000000	0.037029
690.000000	0.037093
689.000000	0.036922
688.000000	0.036865
687.000000	0.036888
686.000000	0.036833
685.000000	0.036754
684.000000	0.036716
683.000000	0.036626
682.000000	0.036540
681.000000	0.036512
680.000000	0.036474
679.000000	0.036322
678.000000	0.036117
677.000000	0.036001
676.000000	0.035984
675.000000	0.035819
674.000000	0.035732
673.000000	0.035726
672.000000	0.035609
671.000000	0.035476
670.000000	0.035461
669.000000	0.035437
668.000000	0.035343
667.000000	0.035269
666.000000	0.035221
665.000000	0.035198
664.000000	0.035177
663.000000	0.035183
662.000000	0.035283
661.000000	0.035343
660.000000	0.035371
659.000000	0.035404
658.000000	0.035384
657.000000	0.035499
656.000000	0.035633
655.000000	0.035636
654.000000	0.035687
653.000000	0.035680
652.000000	0.035808
651.000000	0.035880
650.000000	0.035893
649.000000	0.035953
648.000000	0.036071
647.000000	0.036112
646.000000	0.036058
645.000000	0.036068
644.000000	0.036187
643.000000	0.036164
642.000000	0.036236
641.000000	0.036293
640.000000	0.036264
639.000000	0.036229
638.000000	0.036275
637.000000	0.036366
636.000000	0.036306
635.000000	0.036348
634.000000	0.036428
633.000000	0.036494
632.000000	0.036571
631.000000	0.036513
630.000000	0.036560
629.000000	0.036557
628.000000	0.036461
627.000000	0.036596
626.000000	0.036677
625.000000	0.036662
624.000000	0.036694
623.000000	0.036824
622.000000	0.036949
621.000000	0.036870
620.000000	0.037013
619.000000	0.037165
618.000000	0.037167
617.000000	0.037139
616.000000	0.037216
615.000000	0.037304
614.000000	0.037286
613.000000	0.037305
612.000000	0.037466
611.000000	0.037536
610.000000	0.037457
609.000000	0.037518
608.000000	0.037646
607.000000	0.037703
606.000000	0.037632
605.000000	0.037627
604.000000	0.037648
603.000000	0.037616
602.000000	0.037542
601.000000	0.037662
600.000000	0.037540
599.000000	0.037468
598.000000	0.037443
597.000000	0.037308
596.000000	0.037216
595.000000	0.037233
594.000000	0.037228
593.000000	0.037200
592.000000	0.037113
591.000000	0.037059
590.000000	0.037124
589.000000	0.037242
588.000000	0.037175
587.000000	0.037315
586.000000	0.037404
585.000000	0.037182
584.000000	0.037246
583.000000	0.037334
582.000000	0.037373
581.000000	0.037375
580.000000	0.037379
579.000000	0.037366
578.000000	0.037364
577.000000	0.037381
576.000000	0.037484
575.000000	0.037596
574.000000	0.037629
573.000000	0.037613
572.000000	0.037682
571.000000	0.037773
570.000000	0.037655
569.000000	0.037789
568.000000	0.037805
567.000000	0.037695
566.000000	0.037716
565.000000	0.037835
564.000000	0.037824
563.000000	0.037770
562.000000	0.037756
561.000000	0.037880
560.000000	0.037728
559.000000	0.037842
558.000000	0.037825
557.000000	0.037773
556.000000	0.037720
555.000000	0.037773
554.000000	0.037677
553.000000	0.037660
552.000000	0.037724
551.000000	0.037728
550.000000	0.037730
549.000000	0.037599
548.000000	0.037540
547.000000	0.037588
546.000000	0.037625
545.000000	0.037638
544.000000	0.037655
543.000000	0.037732
542.000000	0.037726
541.000000	0.037655
540.000000	0.037706
539.000000	0.037703
538.000000	0.037687
537.000000	0.037709
536.000000	0.037807
535.000000	0.037797
534.000000	0.037738
533.000000	0.037844
532.000000	0.037831
531.000000	0.037898
530.000000	0.037984
529.000000	0.038161
528.000000	0.038152
527.000000	0.038221
526.000000	0.038352
525.000000	0.038378
524.000000	0.038308
523.000000	0.038376
522.000000	0.038558
521.000000	0.038689
520.000000	0.038766
519.000000	0.038799
518.000000	0.038949
517.000000	0.039113
516.000000	0.039118
515.000000	0.039194
514.000000	0.039369
513.000000	0.039489
512.000000	0.039457
511.000000	0.039433
510.000000	0.039479
509.000000	0.039501
508.000000	0.039597
507.000000	0.039763
506.000000	0.039736
505.000000	0.039694
504.000000	0.039854
503.000000	0.039912
502.000000	0.039950
501.000000	0.040058
500.000000	0.040189
499.000000	0.040257
498.000000	0.040349
497.000000	0.040381
496.000000	0.040436
495.000000	0.040539
494.000000	0.040584
493.000000	0.040661
492.000000	0.040802
491.000000	0.040878
490.000000	0.041066
489.000000	0.041253
488.000000	0.041281
487.000000	0.041416
486.000000	0.041652
485.000000	0.041794
484.000000	0.041837
483.000000	0.041957
482.000000	0.042047
481.000000	0.042153
480.000000	0.042284
479.000000	0.042440
478.000000	0.042569
477.000000	0.042647
476.000000	0.042765
475.000000	0.042946
474.000000	0.043043
473.000000	0.043052
472.000000	0.043262
471.000000	0.043454
470.000000	0.043514
469.000000	0.043753
468.000000	0.044018
467.000000	0.044082
466.000000	0.044110
465.000000	0.044280
464.000000	0.044384
463.000000	0.044462
462.000000	0.044546
461.000000	0.044677
460.000000	0.044860
459.000000	0.044957
458.000000	0.044924
457.000000	0.045172
456.000000	0.045395
455.000000	0.045448
454.000000	0.045522
453.000000	0.045691
452.000000	0.045648
451.000000	0.045756
450.000000	0.046089
449.000000	0.046282
448.000000	0.046272
447.000000	0.046478
446.000000	0.046644
445.000000	0.046832
444.000000	0.046930
443.000000	0.047096
442.000000	0.047248
441.000000	0.047354
440.000000	0.047393
439.000000	0.047742
438.000000	0.047906
437.000000	0.048002
436.000000	0.048167
435.000000	0.048421
434.000000	0.048438
433.000000	0.048590
432.000000	0.048942
431.000000	0.049197
430.000000	0.049350
429.000000	0.049561
428.000000	0.049800
427.000000	0.050037
426.000000	0.050201
425.000000	0.050566
424.000000	0.050894
423.000000	0.050961
422.000000	0.050952
421.000000	0.051376
420.000000	0.051673
419.000000	0.051838
418.000000	0.052039
417.000000	0.052476
416.000000	0.052622
415.000000	0.052828
414.000000	0.053235
413.000000	0.053585
412.000000	0.053828
411.000000	0.054161
410.000000	0.054404
409.000000	0.054790
408.000000	0.055098
407.000000	0.055442
406.000000	0.055823
405.000000	0.056027
404.000000	0.056202
403.000000	0.056707
402.000000	0.057089
401.000000	0.057307
400.000000	0.057664
399.000000	0.058239
398.000000	0.058314
397.000000	0.058673
396.000000	0.059269
395.000000	0.059780
394.000000	0.060021
393.000000	0.060481
392.000000	0.060803
391.000000	0.061516
390.000000	0.061871
389.000000	0.062365
388.000000	0.062984
387.000000	0.063486
386.000000	0.063750
385.000000	0.064380
384.000000	0.065077
383.000000	0.065441
382.000000	0.066032
381.000000	0.066858
380.000000	0.067415
379.000000	0.067948
378.000000	0.068690
377.000000	0.069174
376.000000	0.069694
375.000000	0.070329
374.000000	0.071196
373.000000	0.071767
372.000000	0.072338
371.000000	0.073162
370.000000	0.073841
369.000000	0.074355
368.000000	0.075345
367.000000	0.076096
366.000000	0.076690
365.000000	0.077250
364.000000	0.078255
363.000000	0.079020
362.000000	0.079702
361.000000	0.080453
360.000000	0.081299
359.000000	0.082087
358.000000	0.082786
357.000000	0.083692
356.000000	0.084702
355.000000	0.085508
354.000000	0.086192
353.000000	0.087031
352.000000	0.087958
351.000000	0.088842
350.000000	0.089726
349.000000	0.090715
348.000000	0.091548
347.000000	0.092407
346.000000	0.093434
345.000000	0.094554
344.000000	0.095384
343.000000	0.096326
342.000000	0.097387
341.000000	0.098354
340.000000	0.099278
339.000000	0.100314
338.000000	0.101477
337.000000	0.102463
336.000000	0.103480
335.000000	0.104528
334.000000	0.105801
333.000000	0.106919
332.000000	0.107990
331.000000	0.109303
330.000000	0.110498
329.000000	0.111618
328.000000	0.112889
327.000000	0.114238
326.000000	0.115537
325.000000	0.116617
324.000000	0.117956
323.000000	0.119436
322.000000	0.120811
321.000000	0.122142
320.000000	0.123621
319.000000	0.125056
318.000000	0.126704
317.000000	0.128816
316.000000	0.130283
315.000000	0.131916
314.000000	0.133587
313.000000	0.135136
312.000000	0.136744
311.000000	0.138522
310.000000	0.140188
309.000000	0.141930
308.000000	0.143678
307.000000	0.145554
306.000000	0.147419
305.000000	0.149146
304.000000	0.151066
303.000000	0.153124
302.000000	0.155009
301.000000	0.156988
300.000000	0.159046
299.000000	0.161072
298.000000	0.163164
297.000000	0.165409
296.000000	0.167643
295.000000	0.169955
294.000000	0.172227
293.000000	0.174600
292.000000	0.177066
291.000000	0.179478
290.000000	0.181954
289.000000	0.184528
288.000000	0.186989
287.000000	0.189417
286.000000	0.192018
285.000000	0.194649
284.000000	0.197150
283.000000	0.199737
282.000000	0.202464
281.000000	0.205056
280.000000	0.207584
279.000000	0.210194
278.000000	0.212907
277.000000	0.215540
276.000000	0.218132
275.000000	0.220800
274.000000	0.223548
273.000000	0.226242
272.000000	0.228839
271.000000	0.231517
270.000000	0.234201
269.000000	0.236817
268.000000	0.239477
267.000000	0.242022
266.000000	0.244496
265.000000	0.246893
264.000000	0.249283
263.000000	0.251696
262.000000	0.253937
261.000000	0.256262
260.000000	0.258627
259.000000	0.260857
258.000000	0.262917
257.000000	0.264975
256.000000	0.267251
255.000000	0.269359
254.000000	0.271620
253.000000	0.273985
252.000000	0.276236
251.000000	0.278487
250.000000	0.280870
249.000000	0.283567
248.000000	0.286257
247.000000	0.289113
246.000000	0.292214
245.000000	0.295642
244.000000	0.299114
243.000000	0.302857
242.000000	0.306992
241.000000	0.311413
240.000000	0.316112
239.000000	0.321229
238.000000	0.326791
237.000000	0.332640
236.000000	0.339037
235.000000	0.346261
234.000000	0.354056
233.000000	0.362407
232.000000	0.371758
231.000000	0.382096
230.000000	0.393082
229.000000	0.405222
228.000000	0.418500
227.000000	0.433203
226.000000	0.449172
225.000000	0.466858
224.000000	0.485972
223.000000	0.506788
222.000000	0.529011
221.000000	0.553044
220.000000	0.578570
219.000000	0.606026
218.000000	0.634888
217.000000	0.665394
216.000000	0.697612
215.000000	0.731654
214.000000	0.767502
213.000000	0.805769
212.000000	0.845784
211.000000	0.887536
210.000000	0.932425
209.000000	0.979757
208.000000	1.030313
207.000000	1.085223
206.000000	1.145920
205.000000	1.214540
204.000000	1.291642
203.000000	1.384552
202.000000	1.498393
201.000000	1.642421
200.000000	1.829506
