PE UV       SUBTECH     SPECTRUM    ASCII       PEDS        4.00        
   -1
TV4-02B_1.Sample.Raw.asc
11/04/28
10:09:21.00
11/04/28
10:09:21.00
Hermanni Kaartokallio

200.000000
1
Lambda 650
650N8121101
PerkinElmer UV WinLab 6.0.2.0723 / 1.61.00 Lambda 650

0
0
2
0
0
UV/VIS
1
1
1
uv/vis/nir detector
0
0
0
0
Fix
 
0
0.24
0
0
0
 
 
 
0
 
0
319.2
0
Front
100
 
 
 
0
0
0
 
0
 
 
 
0
 
 
0
0
0
0
0
 
 
 
 
0
0
#HDR
-1
-1
#GR
nm
A
1.0
0.0
800.000000
-1.000000
601
8
2.942272
0.034764
#DATA
800.000000	0.044544
799.000000	0.044724
798.000000	0.044643
797.000000	0.044513
796.000000	0.044549
795.000000	0.044567
794.000000	0.044647
793.000000	0.044606
792.000000	0.044705
791.000000	0.044889
790.000000	0.044963
789.000000	0.045275
788.000000	0.045503
787.000000	0.045593
786.000000	0.045633
785.000000	0.046024
784.000000	0.046200
783.000000	0.046332
782.000000	0.046434
781.000000	0.046706
780.000000	0.046733
779.000000	0.046822
778.000000	0.046882
777.000000	0.046949
776.000000	0.047057
775.000000	0.047062
774.000000	0.047089
773.000000	0.047127
772.000000	0.047069
771.000000	0.047199
770.000000	0.047313
769.000000	0.047285
768.000000	0.047288
767.000000	0.047128
766.000000	0.047329
765.000000	0.047301
764.000000	0.047277
763.000000	0.047455
762.000000	0.047464
761.000000	0.047420
760.000000	0.047537
759.000000	0.047627
758.000000	0.047595
757.000000	0.047541
756.000000	0.047527
755.000000	0.047639
754.000000	0.047463
753.000000	0.047315
752.000000	0.047442
751.000000	0.047362
750.000000	0.047245
749.000000	0.047089
748.000000	0.047086
747.000000	0.046978
746.000000	0.046808
745.000000	0.046674
744.000000	0.046640
743.000000	0.046447
742.000000	0.046319
741.000000	0.046210
740.000000	0.046077
739.000000	0.045809
738.000000	0.045573
737.000000	0.045317
736.000000	0.044948
735.000000	0.044505
734.000000	0.044103
733.000000	0.043647
732.000000	0.043047
731.000000	0.042329
730.000000	0.041994
729.000000	0.041425
728.000000	0.041052
727.000000	0.040782
726.000000	0.040445
725.000000	0.040018
724.000000	0.039936
723.000000	0.039914
722.000000	0.039700
721.000000	0.039463
720.000000	0.039089
719.000000	0.038887
718.000000	0.038841
717.000000	0.038627
716.000000	0.038451
715.000000	0.038222
714.000000	0.037948
713.000000	0.037853
712.000000	0.037821
711.000000	0.037650
710.000000	0.037446
709.000000	0.037359
708.000000	0.037300
707.000000	0.037117
706.000000	0.036966
705.000000	0.036918
704.000000	0.036808
703.000000	0.036652
702.000000	0.036630
701.000000	0.036681
700.000000	0.036626
699.000000	0.036574
698.000000	0.036682
697.000000	0.036695
696.000000	0.036585
695.000000	0.036590
694.000000	0.036675
693.000000	0.036723
692.000000	0.036709
691.000000	0.036696
690.000000	0.036738
689.000000	0.036739
688.000000	0.036688
687.000000	0.036634
686.000000	0.036530
685.000000	0.036485
684.000000	0.036489
683.000000	0.036440
682.000000	0.036269
681.000000	0.036187
680.000000	0.036161
679.000000	0.035988
678.000000	0.035804
677.000000	0.035757
676.000000	0.035678
675.000000	0.035472
674.000000	0.035312
673.000000	0.035343
672.000000	0.035299
671.000000	0.035136
670.000000	0.035035
669.000000	0.035022
668.000000	0.034966
667.000000	0.034862
666.000000	0.034880
665.000000	0.034857
664.000000	0.034764
663.000000	0.034770
662.000000	0.034855
661.000000	0.034890
660.000000	0.034872
659.000000	0.034903
658.000000	0.034857
657.000000	0.034814
656.000000	0.034840
655.000000	0.034925
654.000000	0.034986
653.000000	0.034978
652.000000	0.035046
651.000000	0.035166
650.000000	0.035210
649.000000	0.035180
648.000000	0.035281
647.000000	0.035382
646.000000	0.035315
645.000000	0.035322
644.000000	0.035356
643.000000	0.035430
642.000000	0.035457
641.000000	0.035494
640.000000	0.035499
639.000000	0.035439
638.000000	0.035399
637.000000	0.035491
636.000000	0.035467
635.000000	0.035414
634.000000	0.035352
633.000000	0.035410
632.000000	0.035467
631.000000	0.035414
630.000000	0.035485
629.000000	0.035533
628.000000	0.035405
627.000000	0.035516
626.000000	0.035692
625.000000	0.035660
624.000000	0.035647
623.000000	0.035686
622.000000	0.035791
621.000000	0.035787
620.000000	0.035889
619.000000	0.035983
618.000000	0.036041
617.000000	0.036055
616.000000	0.036032
615.000000	0.036093
614.000000	0.036132
613.000000	0.036124
612.000000	0.036224
611.000000	0.036316
610.000000	0.036312
609.000000	0.036294
608.000000	0.036363
607.000000	0.036434
606.000000	0.036343
605.000000	0.036255
604.000000	0.036384
603.000000	0.036333
602.000000	0.036223
601.000000	0.036270
600.000000	0.036243
599.000000	0.036211
598.000000	0.036159
597.000000	0.036174
596.000000	0.036099
595.000000	0.035944
594.000000	0.035960
593.000000	0.035959
592.000000	0.035881
591.000000	0.035823
590.000000	0.035942
589.000000	0.035989
588.000000	0.035930
587.000000	0.035972
586.000000	0.035964
585.000000	0.035931
584.000000	0.035951
583.000000	0.035904
582.000000	0.035990
581.000000	0.036001
580.000000	0.035929
579.000000	0.035950
578.000000	0.036015
577.000000	0.036013
576.000000	0.036075
575.000000	0.036139
574.000000	0.036082
573.000000	0.036046
572.000000	0.036175
571.000000	0.036315
570.000000	0.036232
569.000000	0.036241
568.000000	0.036328
567.000000	0.036292
566.000000	0.036232
565.000000	0.036265
564.000000	0.036302
563.000000	0.036258
562.000000	0.036219
561.000000	0.036269
560.000000	0.036151
559.000000	0.036146
558.000000	0.036144
557.000000	0.036122
556.000000	0.036036
555.000000	0.036001
554.000000	0.035970
553.000000	0.035930
552.000000	0.035915
551.000000	0.035922
550.000000	0.035911
549.000000	0.035759
548.000000	0.035633
547.000000	0.035693
546.000000	0.035720
545.000000	0.035707
544.000000	0.035697
543.000000	0.035692
542.000000	0.035543
541.000000	0.035688
540.000000	0.035697
539.000000	0.035590
538.000000	0.035703
537.000000	0.035668
536.000000	0.035677
535.000000	0.035697
534.000000	0.035686
533.000000	0.035709
532.000000	0.035779
531.000000	0.035815
530.000000	0.035735
529.000000	0.035788
528.000000	0.035876
527.000000	0.035898
526.000000	0.035932
525.000000	0.036034
524.000000	0.035974
523.000000	0.035913
522.000000	0.036140
521.000000	0.036195
520.000000	0.036075
519.000000	0.036067
518.000000	0.036146
517.000000	0.036135
516.000000	0.036115
515.000000	0.036139
514.000000	0.036221
513.000000	0.036201
512.000000	0.036145
511.000000	0.036238
510.000000	0.036300
509.000000	0.036225
508.000000	0.036227
507.000000	0.036264
506.000000	0.036286
505.000000	0.036290
504.000000	0.036340
503.000000	0.036400
502.000000	0.036378
501.000000	0.036359
500.000000	0.036422
499.000000	0.036507
498.000000	0.036511
497.000000	0.036535
496.000000	0.036632
495.000000	0.036679
494.000000	0.036677
493.000000	0.036769
492.000000	0.036865
491.000000	0.036886
490.000000	0.036965
489.000000	0.037091
488.000000	0.037143
487.000000	0.037213
486.000000	0.037302
485.000000	0.037350
484.000000	0.037362
483.000000	0.037358
482.000000	0.037460
481.000000	0.037609
480.000000	0.037642
479.000000	0.037669
478.000000	0.037780
477.000000	0.037778
476.000000	0.037805
475.000000	0.037865
474.000000	0.037952
473.000000	0.038008
472.000000	0.038084
471.000000	0.038135
470.000000	0.038175
469.000000	0.038159
468.000000	0.038238
467.000000	0.038367
466.000000	0.038388
465.000000	0.038385
464.000000	0.038438
463.000000	0.038526
462.000000	0.038535
461.000000	0.038519
460.000000	0.038606
459.000000	0.038634
458.000000	0.038587
457.000000	0.038692
456.000000	0.038773
455.000000	0.038672
454.000000	0.038656
453.000000	0.038738
452.000000	0.038753
451.000000	0.038730
450.000000	0.038825
449.000000	0.038919
448.000000	0.038861
447.000000	0.038834
446.000000	0.038899
445.000000	0.038985
444.000000	0.038998
443.000000	0.039024
442.000000	0.039113
441.000000	0.039052
440.000000	0.039041
439.000000	0.039132
438.000000	0.039216
437.000000	0.039179
436.000000	0.039218
435.000000	0.039310
434.000000	0.039308
433.000000	0.039320
432.000000	0.039369
431.000000	0.039494
430.000000	0.039584
429.000000	0.039513
428.000000	0.039703
427.000000	0.039803
426.000000	0.039743
425.000000	0.039913
424.000000	0.040038
423.000000	0.040031
422.000000	0.039991
421.000000	0.040177
420.000000	0.040328
419.000000	0.040326
418.000000	0.040360
417.000000	0.040367
416.000000	0.040578
415.000000	0.040589
414.000000	0.040671
413.000000	0.040816
412.000000	0.040894
411.000000	0.040906
410.000000	0.041074
409.000000	0.041138
408.000000	0.041219
407.000000	0.041240
406.000000	0.041403
405.000000	0.041438
404.000000	0.041485
403.000000	0.041629
402.000000	0.041816
401.000000	0.041834
400.000000	0.041868
399.000000	0.041962
398.000000	0.042154
397.000000	0.042185
396.000000	0.042293
395.000000	0.042568
394.000000	0.042744
393.000000	0.042698
392.000000	0.042824
391.000000	0.043302
390.000000	0.043331
389.000000	0.043400
388.000000	0.043632
387.000000	0.043803
386.000000	0.043963
385.000000	0.044085
384.000000	0.044509
383.000000	0.044580
382.000000	0.044839
381.000000	0.045008
380.000000	0.045358
379.000000	0.045500
378.000000	0.045907
377.000000	0.046087
376.000000	0.046196
375.000000	0.046334
374.000000	0.046772
373.000000	0.047024
372.000000	0.047219
371.000000	0.047448
370.000000	0.047765
369.000000	0.047900
368.000000	0.048253
367.000000	0.048535
366.000000	0.048847
365.000000	0.048930
364.000000	0.049298
363.000000	0.049596
362.000000	0.049872
361.000000	0.050123
360.000000	0.050414
359.000000	0.050718
358.000000	0.051077
357.000000	0.051310
356.000000	0.051637
355.000000	0.051978
354.000000	0.052243
353.000000	0.052421
352.000000	0.052747
351.000000	0.053157
350.000000	0.053454
349.000000	0.053742
348.000000	0.053994
347.000000	0.054434
346.000000	0.054762
345.000000	0.055178
344.000000	0.055465
343.000000	0.055818
342.000000	0.056151
341.000000	0.056429
340.000000	0.056864
339.000000	0.057153
338.000000	0.057591
337.000000	0.058002
336.000000	0.058373
335.000000	0.058690
334.000000	0.059139
333.000000	0.059632
332.000000	0.060127
331.000000	0.060688
330.000000	0.061194
329.000000	0.061616
328.000000	0.061979
327.000000	0.062595
326.000000	0.063208
325.000000	0.063591
324.000000	0.064078
323.000000	0.064690
322.000000	0.065200
321.000000	0.065771
320.000000	0.066463
319.000000	0.067031
318.000000	0.067666
317.000000	0.068912
316.000000	0.069645
315.000000	0.070362
314.000000	0.071065
313.000000	0.071759
312.000000	0.072466
311.000000	0.073279
310.000000	0.074018
309.000000	0.074912
308.000000	0.075709
307.000000	0.076597
306.000000	0.077539
305.000000	0.078289
304.000000	0.079174
303.000000	0.080238
302.000000	0.081143
301.000000	0.082224
300.000000	0.083264
299.000000	0.084258
298.000000	0.085375
297.000000	0.086519
296.000000	0.087721
295.000000	0.089014
294.000000	0.090217
293.000000	0.091491
292.000000	0.092896
291.000000	0.094315
290.000000	0.095688
289.000000	0.097151
288.000000	0.098595
287.000000	0.099969
286.000000	0.101365
285.000000	0.102881
284.000000	0.104406
283.000000	0.105867
282.000000	0.107306
281.000000	0.108749
280.000000	0.110315
279.000000	0.111895
278.000000	0.113431
277.000000	0.114971
276.000000	0.116488
275.000000	0.117983
274.000000	0.119607
273.000000	0.121154
272.000000	0.122650
271.000000	0.124161
270.000000	0.125747
269.000000	0.127241
268.000000	0.128800
267.000000	0.130337
266.000000	0.131725
265.000000	0.133162
264.000000	0.134580
263.000000	0.135878
262.000000	0.137215
261.000000	0.138661
260.000000	0.139951
259.000000	0.141186
258.000000	0.142392
257.000000	0.143577
256.000000	0.144861
255.000000	0.146126
254.000000	0.147369
253.000000	0.148586
252.000000	0.149851
251.000000	0.151173
250.000000	0.152425
249.000000	0.153906
248.000000	0.155340
247.000000	0.156891
246.000000	0.158553
245.000000	0.160369
244.000000	0.162339
243.000000	0.164314
242.000000	0.166455
241.000000	0.168847
240.000000	0.171251
239.000000	0.173935
238.000000	0.176748
237.000000	0.179815
236.000000	0.183000
235.000000	0.186386
234.000000	0.190242
233.000000	0.194296
232.000000	0.198602
231.000000	0.203224
230.000000	0.208167
229.000000	0.213563
228.000000	0.219341
227.000000	0.225676
226.000000	0.232589
225.000000	0.240249
224.000000	0.248837
223.000000	0.258410
222.000000	0.269200
221.000000	0.281343
220.000000	0.295284
219.000000	0.311500
218.000000	0.330354
217.000000	0.352476
216.000000	0.378747
215.000000	0.409882
214.000000	0.447181
213.000000	0.492151
212.000000	0.545363
211.000000	0.608481
210.000000	0.682937
209.000000	0.770464
208.000000	0.872638
207.000000	0.993053
206.000000	1.135191
205.000000	1.303591
204.000000	1.504937
203.000000	1.750939
202.000000	2.055274
201.000000	2.439273
200.000000	2.942272
