PE UV       SUBTECH     SPECTRUM    ASCII       PEDS        4.00        	
-1	
Ki202b040810.Sample.Raw.asc	
10.8.2020	
11:02:07.00	
10.8.2020	
11:02:07.00	
Hermanni Kaartokallio	
	
200.000000	
1	
Lambda 650	
650N8121101	
PerkinElmer UV WinLab 6.0.2.0723 / 1.61.00 Lambda 650	
	
0	
0	
2	
0	
0	
UV/VIS	
1	
1	
1	
uv/vis/nir detector	
0	
0	
0	
0	
Fix	
 	
0	
0.24	
0	
0	
0	
 	
 	
 	
0	
 	
0	
319.2	
0	
Front	
100	
 	
 	
 	
0	
0	
0	
 	
0	
 	
 	
 	
0	
 	
 	
0	
0	
0	
0	
0	
 	
 	
 	
 	
0	
0	
#HDR	
-1	
-1	
#GR	
nm	
A	
1.0	
0.0	
800.000000	
-1.000000	
601	
8	
3.580725	
0.036823	
#DATA	
800.000000	0.079013
799.000000	0.079367
798.000000	0.079759
797.000000	0.080064
796.000000	0.080517
795.000000	0.080943
794.000000	0.081423
793.000000	0.081925
792.000000	0.082137
791.000000	0.082642
790.000000	0.083248
789.000000	0.083707
788.000000	0.084049
787.000000	0.084521
786.000000	0.085023
785.000000	0.085282
784.000000	0.085876
783.000000	0.086339
782.000000	0.086768
781.000000	0.087096
780.000000	0.087411
779.000000	0.087840
778.000000	0.088291
777.000000	0.088548
776.000000	0.088966
775.000000	0.089371
774.000000	0.089487
773.000000	0.089726
772.000000	0.090154
771.000000	0.090385
770.000000	0.090469
769.000000	0.090760
768.000000	0.090926
767.000000	0.091028
766.000000	0.091136
765.000000	0.091387
764.000000	0.091503
763.000000	0.091565
762.000000	0.091523
761.000000	0.091753
760.000000	0.091734
759.000000	0.091682
758.000000	0.091706
757.000000	0.091779
756.000000	0.091580
755.000000	0.091558
754.000000	0.091674
753.000000	0.091616
752.000000	0.091492
751.000000	0.091398
750.000000	0.091285
749.000000	0.091256
748.000000	0.091140
747.000000	0.091110
746.000000	0.091021
745.000000	0.090813
744.000000	0.090700
743.000000	0.090670
742.000000	0.090495
741.000000	0.090021
740.000000	0.089595
739.000000	0.089014
738.000000	0.088030
737.000000	0.086968
736.000000	0.085684
735.000000	0.084012
734.000000	0.081940
733.000000	0.079793
732.000000	0.077474
731.000000	0.074956
730.000000	0.072438
729.000000	0.070139
728.000000	0.068019
727.000000	0.066032
726.000000	0.064232
725.000000	0.062721
724.000000	0.061299
723.000000	0.059893
722.000000	0.058655
721.000000	0.057511
720.000000	0.056320
719.000000	0.055181
718.000000	0.054169
717.000000	0.053077
716.000000	0.051918
715.000000	0.050927
714.000000	0.050057
713.000000	0.049174
712.000000	0.048374
711.000000	0.047698
710.000000	0.047064
709.000000	0.046384
708.000000	0.045776
707.000000	0.045338
706.000000	0.044889
705.000000	0.044352
704.000000	0.043974
703.000000	0.043610
702.000000	0.043200
701.000000	0.042895
700.000000	0.042651
699.000000	0.042374
698.000000	0.041991
697.000000	0.041677
696.000000	0.041539
695.000000	0.041339
694.000000	0.041087
693.000000	0.041039
692.000000	0.041003
691.000000	0.040799
690.000000	0.040690
689.000000	0.040714
688.000000	0.040585
687.000000	0.040507
686.000000	0.040603
685.000000	0.040623
684.000000	0.040518
683.000000	0.040569
682.000000	0.040659
681.000000	0.040630
680.000000	0.040658
679.000000	0.040799
678.000000	0.040843
677.000000	0.040814
676.000000	0.040755
675.000000	0.040853
674.000000	0.040959
673.000000	0.041024
672.000000	0.041041
671.000000	0.041108
670.000000	0.041019
669.000000	0.040842
668.000000	0.041019
667.000000	0.041203
666.000000	0.041098
665.000000	0.041013
664.000000	0.040938
663.000000	0.040973
662.000000	0.040983
661.000000	0.040958
660.000000	0.040979
659.000000	0.040867
658.000000	0.040637
657.000000	0.040622
656.000000	0.040606
655.000000	0.040426
654.000000	0.040266
653.000000	0.040195
652.000000	0.039977
651.000000	0.039886
650.000000	0.039970
649.000000	0.040030
648.000000	0.039846
647.000000	0.039813
646.000000	0.039872
645.000000	0.039846
644.000000	0.039739
643.000000	0.039619
642.000000	0.039776
641.000000	0.039643
640.000000	0.039463
639.000000	0.039455
638.000000	0.039710
637.000000	0.039540
636.000000	0.039509
635.000000	0.039646
634.000000	0.039558
633.000000	0.039444
632.000000	0.039521
631.000000	0.039578
630.000000	0.039457
629.000000	0.039334
628.000000	0.039441
627.000000	0.039403
626.000000	0.039330
625.000000	0.039426
624.000000	0.039623
623.000000	0.039551
622.000000	0.039473
621.000000	0.039651
620.000000	0.039750
619.000000	0.039624
618.000000	0.039669
617.000000	0.039802
616.000000	0.039716
615.000000	0.039668
614.000000	0.039792
613.000000	0.039994
612.000000	0.039891
611.000000	0.039894
610.000000	0.039835
609.000000	0.040057
608.000000	0.039960
607.000000	0.039937
606.000000	0.040077
605.000000	0.039971
604.000000	0.039651
603.000000	0.039664
602.000000	0.039688
601.000000	0.039396
600.000000	0.039227
599.000000	0.039042
598.000000	0.038901
597.000000	0.038417
596.000000	0.038321
595.000000	0.038233
594.000000	0.038010
593.000000	0.037728
592.000000	0.037692
591.000000	0.037551
590.000000	0.037479
589.000000	0.037278
588.000000	0.037347
587.000000	0.037397
586.000000	0.037076
585.000000	0.037037
584.000000	0.037016
583.000000	0.037124
582.000000	0.036956
581.000000	0.037000
580.000000	0.037031
579.000000	0.036823
578.000000	0.036963
577.000000	0.037087
576.000000	0.037034
575.000000	0.036996
574.000000	0.037108
573.000000	0.037104
572.000000	0.037074
571.000000	0.037118
570.000000	0.037226
569.000000	0.037285
568.000000	0.037343
567.000000	0.037213
566.000000	0.037510
565.000000	0.037608
564.000000	0.037537
563.000000	0.037753
562.000000	0.037960
561.000000	0.037771
560.000000	0.037834
559.000000	0.038090
558.000000	0.038203
557.000000	0.038336
556.000000	0.038572
555.000000	0.038694
554.000000	0.038674
553.000000	0.038864
552.000000	0.039117
551.000000	0.039197
550.000000	0.039336
549.000000	0.039579
548.000000	0.039754
547.000000	0.039729
546.000000	0.039823
545.000000	0.040118
544.000000	0.040295
543.000000	0.040335
542.000000	0.040443
541.000000	0.040700
540.000000	0.040840
539.000000	0.040957
538.000000	0.041219
537.000000	0.041428
536.000000	0.041428
535.000000	0.041613
534.000000	0.041985
533.000000	0.042103
532.000000	0.042092
531.000000	0.042318
530.000000	0.042437
529.000000	0.042576
528.000000	0.042755
527.000000	0.043044
526.000000	0.043179
525.000000	0.043181
524.000000	0.043296
523.000000	0.043571
522.000000	0.043705
521.000000	0.043714
520.000000	0.043928
519.000000	0.044171
518.000000	0.044158
517.000000	0.044262
516.000000	0.044497
515.000000	0.044631
514.000000	0.044685
513.000000	0.044759
512.000000	0.044948
511.000000	0.045065
510.000000	0.045092
509.000000	0.045223
508.000000	0.045322
507.000000	0.045265
506.000000	0.045358
505.000000	0.045637
504.000000	0.045791
503.000000	0.045816
502.000000	0.046002
501.000000	0.046097
500.000000	0.046090
499.000000	0.046238
498.000000	0.046457
497.000000	0.046599
496.000000	0.046680
495.000000	0.046846
494.000000	0.047066
493.000000	0.047202
492.000000	0.047287
491.000000	0.047473
490.000000	0.047708
489.000000	0.047798
488.000000	0.047977
487.000000	0.048295
486.000000	0.048388
485.000000	0.048454
484.000000	0.048683
483.000000	0.048876
482.000000	0.048991
481.000000	0.049160
480.000000	0.049411
479.000000	0.049625
478.000000	0.049792
477.000000	0.049933
476.000000	0.050225
475.000000	0.050498
474.000000	0.050636
473.000000	0.050950
472.000000	0.051251
471.000000	0.051389
470.000000	0.051562
469.000000	0.051971
468.000000	0.052294
467.000000	0.052512
466.000000	0.052761
465.000000	0.053134
464.000000	0.053431
463.000000	0.053778
462.000000	0.054174
461.000000	0.054541
460.000000	0.054827
459.000000	0.055179
458.000000	0.055644
457.000000	0.055973
456.000000	0.056294
455.000000	0.056732
454.000000	0.057210
453.000000	0.057521
452.000000	0.057857
451.000000	0.058397
450.000000	0.058858
449.000000	0.059255
448.000000	0.059667
447.000000	0.060223
446.000000	0.060635
445.000000	0.061130
444.000000	0.061641
443.000000	0.062238
442.000000	0.062659
441.000000	0.063186
440.000000	0.063740
439.000000	0.064351
438.000000	0.064882
437.000000	0.065490
436.000000	0.066098
435.000000	0.066630
434.000000	0.067233
433.000000	0.067950
432.000000	0.068659
431.000000	0.069215
430.000000	0.069846
429.000000	0.070551
428.000000	0.071255
427.000000	0.071893
426.000000	0.072674
425.000000	0.073463
424.000000	0.074036
423.000000	0.074687
422.000000	0.075618
421.000000	0.076418
420.000000	0.077139
419.000000	0.077889
418.000000	0.078742
417.000000	0.079466
416.000000	0.080315
415.000000	0.081221
414.000000	0.082155
413.000000	0.082931
412.000000	0.083829
411.000000	0.084642
410.000000	0.085630
409.000000	0.086601
408.000000	0.087517
407.000000	0.088556
406.000000	0.089439
405.000000	0.090331
404.000000	0.091544
403.000000	0.092667
402.000000	0.093613
401.000000	0.094645
400.000000	0.095835
399.000000	0.096946
398.000000	0.097923
397.000000	0.099130
396.000000	0.100410
395.000000	0.101589
394.000000	0.102824
393.000000	0.104046
392.000000	0.105457
391.000000	0.106688
390.000000	0.107937
389.000000	0.109461
388.000000	0.110923
387.000000	0.112030
386.000000	0.113617
385.000000	0.115260
384.000000	0.116688
383.000000	0.118101
382.000000	0.119835
381.000000	0.121372
380.000000	0.122936
379.000000	0.124690
378.000000	0.126553
377.000000	0.128079
376.000000	0.129883
375.000000	0.131892
374.000000	0.133732
373.000000	0.135532
372.000000	0.137270
371.000000	0.139248
370.000000	0.141168
369.000000	0.143073
368.000000	0.145234
367.000000	0.147310
366.000000	0.149298
365.000000	0.151263
364.000000	0.153482
363.000000	0.155771
362.000000	0.157976
361.000000	0.160307
360.000000	0.162715
359.000000	0.164929
358.000000	0.167217
357.000000	0.169890
356.000000	0.172392
355.000000	0.174774
354.000000	0.177325
353.000000	0.179986
352.000000	0.182630
351.000000	0.185219
350.000000	0.188007
349.000000	0.190869
348.000000	0.193589
347.000000	0.196243
346.000000	0.199327
345.000000	0.202371
344.000000	0.205232
343.000000	0.208277
342.000000	0.211516
341.000000	0.214543
340.000000	0.217744
339.000000	0.221105
338.000000	0.224488
337.000000	0.227776
336.000000	0.231175
335.000000	0.234801
334.000000	0.238493
333.000000	0.242148
332.000000	0.245947
331.000000	0.249954
330.000000	0.253730
329.000000	0.257662
328.000000	0.261782
327.000000	0.265876
326.000000	0.270075
325.000000	0.274406
324.000000	0.278852
323.000000	0.283218
322.000000	0.287791
321.000000	0.292502
320.000000	0.297308
319.000000	0.302037
318.000000	0.306819
317.000000	0.311642
316.000000	0.316614
315.000000	0.322033
314.000000	0.327420
313.000000	0.332635
312.000000	0.338001
311.000000	0.343608
310.000000	0.349348
309.000000	0.355163
308.000000	0.361217
307.000000	0.367321
306.000000	0.373472
305.000000	0.379741
304.000000	0.386354
303.000000	0.393193
302.000000	0.399923
301.000000	0.406920
300.000000	0.414107
299.000000	0.421354
298.000000	0.428768
297.000000	0.436492
296.000000	0.444411
295.000000	0.452404
294.000000	0.460718
293.000000	0.469305
292.000000	0.478020
291.000000	0.486856
290.000000	0.495929
289.000000	0.505290
288.000000	0.514665
287.000000	0.524098
286.000000	0.533841
285.000000	0.543706
284.000000	0.553466
283.000000	0.563354
282.000000	0.573504
281.000000	0.583465
280.000000	0.593405
279.000000	0.603611
278.000000	0.613902
277.000000	0.624112
276.000000	0.634403
275.000000	0.644758
274.000000	0.655185
273.000000	0.665527
272.000000	0.675957
271.000000	0.686373
270.000000	0.696421
269.000000	0.706130
268.000000	0.715918
267.000000	0.725604
266.000000	0.734872
265.000000	0.743998
264.000000	0.752882
263.000000	0.761197
262.000000	0.769207
261.000000	0.777270
260.000000	0.785096
259.000000	0.792329
258.000000	0.799263
257.000000	0.805962
256.000000	0.812574
255.000000	0.819126
254.000000	0.825678
253.000000	0.832187
252.000000	0.838577
251.000000	0.844826
250.000000	0.851493
249.000000	0.858542
248.000000	0.865728
247.000000	0.873194
246.000000	0.881436
245.000000	0.889825
244.000000	0.898851
243.000000	0.908849
242.000000	0.919432
241.000000	0.930490
240.000000	0.941861
239.000000	0.954079
238.000000	0.966920
237.000000	0.980442
236.000000	0.994785
235.000000	1.009552
234.000000	1.024978
233.000000	1.040733
232.000000	1.057380
231.000000	1.074657
230.000000	1.091951
229.000000	1.109543
228.000000	1.127736
227.000000	1.146429
226.000000	1.165871
225.000000	1.186209
224.000000	1.207825
223.000000	1.230618
222.000000	1.254758
221.000000	1.281269
220.000000	1.311010
219.000000	1.343823
218.000000	1.381036
217.000000	1.424249
216.000000	1.474002
215.000000	1.531956
214.000000	1.599928
213.000000	1.680541
212.000000	1.772925
211.000000	1.881229
210.000000	2.007914
209.000000	2.150290
208.000000	2.311330
207.000000	2.500960
206.000000	2.711126
205.000000	2.946986
204.000000	3.185813
203.000000	3.384561
202.000000	3.530426
201.000000	3.580725
200.000000	3.569592
