PE UV       SUBTECH     SPECTRUM    ASCII       PEDS        4.00        
   -1
MQ1.Sample.Raw.asc
10/08/20
10:30:46.00
10/08/20
10:30:46.00
Hermanni Kaartokallio

200.000000
1
Lambda 650
650N8121101
PerkinElmer UV WinLab 6.0.2.0723 / 1.61.00 Lambda 650

0
0
2
0
0
UV/VIS
1
1
1
uv/vis/nir detector
0
0
0
0
Fix
 
0
0.24
0
0
0
 
 
 
0
 
0
319.2
0
Front
100
 
 
 
0
0
0
 
0
 
 
 
0
 
 
0
0
0
0
0
 
 
 
 
0
0
#HDR
-1
-1
#GR
nm
A
1.0
0.0
800.000000
-1.000000
601
8
0.146870
0.031613
#DATA
800.000000	0.078314
799.000000	0.078547
798.000000	0.079117
797.000000	0.079395
796.000000	0.079681
795.000000	0.080073
794.000000	0.080650
793.000000	0.081198
792.000000	0.081426
791.000000	0.081930
790.000000	0.082455
789.000000	0.082951
788.000000	0.083256
787.000000	0.083719
786.000000	0.084335
785.000000	0.084707
784.000000	0.085037
783.000000	0.085575
782.000000	0.086107
781.000000	0.086429
780.000000	0.086736
779.000000	0.087207
778.000000	0.087571
777.000000	0.087873
776.000000	0.088300
775.000000	0.088744
774.000000	0.088818
773.000000	0.089130
772.000000	0.089564
771.000000	0.089866
770.000000	0.089944
769.000000	0.090175
768.000000	0.090483
767.000000	0.090602
766.000000	0.090708
765.000000	0.090977
764.000000	0.091071
763.000000	0.091078
762.000000	0.091054
761.000000	0.091239
760.000000	0.091322
759.000000	0.091248
758.000000	0.091354
757.000000	0.091440
756.000000	0.091272
755.000000	0.091224
754.000000	0.091307
753.000000	0.091244
752.000000	0.091111
751.000000	0.091038
750.000000	0.090939
749.000000	0.090969
748.000000	0.090842
747.000000	0.090845
746.000000	0.090744
745.000000	0.090601
744.000000	0.090487
743.000000	0.090426
742.000000	0.090217
741.000000	0.089735
740.000000	0.089313
739.000000	0.088761
738.000000	0.087766
737.000000	0.086656
736.000000	0.085354
735.000000	0.083649
734.000000	0.081571
733.000000	0.079380
732.000000	0.077034
731.000000	0.074500
730.000000	0.071953
729.000000	0.069576
728.000000	0.067387
727.000000	0.065386
726.000000	0.063615
725.000000	0.062115
724.000000	0.060679
723.000000	0.059228
722.000000	0.057918
721.000000	0.056709
720.000000	0.055479
719.000000	0.054345
718.000000	0.053316
717.000000	0.052230
716.000000	0.051059
715.000000	0.050057
714.000000	0.049186
713.000000	0.048287
712.000000	0.047388
711.000000	0.046666
710.000000	0.046045
709.000000	0.045363
708.000000	0.044747
707.000000	0.044350
706.000000	0.043877
705.000000	0.043307
704.000000	0.042925
703.000000	0.042502
702.000000	0.042076
701.000000	0.041727
700.000000	0.041406
699.000000	0.041096
698.000000	0.040795
697.000000	0.040507
696.000000	0.040255
695.000000	0.040038
694.000000	0.039809
693.000000	0.039695
692.000000	0.039609
691.000000	0.039371
690.000000	0.039254
689.000000	0.039265
688.000000	0.039134
687.000000	0.038991
686.000000	0.039055
685.000000	0.039074
684.000000	0.038932
683.000000	0.038914
682.000000	0.039007
681.000000	0.039016
680.000000	0.039036
679.000000	0.039076
678.000000	0.039141
677.000000	0.039154
676.000000	0.039099
675.000000	0.039125
674.000000	0.039189
673.000000	0.039191
672.000000	0.039200
671.000000	0.039259
670.000000	0.039230
669.000000	0.039153
668.000000	0.039224
667.000000	0.039265
666.000000	0.039174
665.000000	0.039096
664.000000	0.039137
663.000000	0.039106
662.000000	0.039022
661.000000	0.038962
660.000000	0.038994
659.000000	0.038819
658.000000	0.038560
657.000000	0.038503
656.000000	0.038509
655.000000	0.038332
654.000000	0.038130
653.000000	0.038019
652.000000	0.037731
651.000000	0.037611
650.000000	0.037696
649.000000	0.037779
648.000000	0.037612
647.000000	0.037517
646.000000	0.037566
645.000000	0.037446
644.000000	0.037348
643.000000	0.037225
642.000000	0.037285
641.000000	0.037175
640.000000	0.037012
639.000000	0.036960
638.000000	0.037063
637.000000	0.036948
636.000000	0.036907
635.000000	0.036944
634.000000	0.036922
633.000000	0.036741
632.000000	0.036768
631.000000	0.036849
630.000000	0.036637
629.000000	0.036557
628.000000	0.036576
627.000000	0.036596
626.000000	0.036498
625.000000	0.036478
624.000000	0.036624
623.000000	0.036508
622.000000	0.036293
621.000000	0.036552
620.000000	0.036576
619.000000	0.036426
618.000000	0.036490
617.000000	0.036576
616.000000	0.036444
615.000000	0.036333
614.000000	0.036418
613.000000	0.036575
612.000000	0.036516
611.000000	0.036366
610.000000	0.036299
609.000000	0.036541
608.000000	0.036336
607.000000	0.036308
606.000000	0.036411
605.000000	0.036333
604.000000	0.036049
603.000000	0.035914
602.000000	0.035932
601.000000	0.035624
600.000000	0.035302
599.000000	0.035143
598.000000	0.035337
597.000000	0.034141
596.000000	0.034382
595.000000	0.033914
594.000000	0.033887
593.000000	0.033523
592.000000	0.033474
591.000000	0.033337
590.000000	0.033173
589.000000	0.032954
588.000000	0.032907
587.000000	0.032979
586.000000	0.032626
585.000000	0.032507
584.000000	0.032491
583.000000	0.032479
582.000000	0.032217
581.000000	0.032213
580.000000	0.032256
579.000000	0.031962
578.000000	0.031828
577.000000	0.031932
576.000000	0.031890
575.000000	0.031836
574.000000	0.031818
573.000000	0.031835
572.000000	0.031765
571.000000	0.031707
570.000000	0.031793
569.000000	0.031801
568.000000	0.031808
567.000000	0.031613
566.000000	0.031824
565.000000	0.031844
564.000000	0.031671
563.000000	0.031844
562.000000	0.031941
561.000000	0.031775
560.000000	0.031818
559.000000	0.032003
558.000000	0.031985
557.000000	0.031992
556.000000	0.032176
555.000000	0.032235
554.000000	0.032130
553.000000	0.032273
552.000000	0.032395
551.000000	0.032404
550.000000	0.032383
549.000000	0.032558
548.000000	0.032661
547.000000	0.032601
546.000000	0.032597
545.000000	0.032793
544.000000	0.032885
543.000000	0.032814
542.000000	0.032886
541.000000	0.033133
540.000000	0.033181
539.000000	0.033246
538.000000	0.033385
537.000000	0.033416
536.000000	0.033360
535.000000	0.033438
534.000000	0.033619
533.000000	0.033698
532.000000	0.033689
531.000000	0.033798
530.000000	0.033835
529.000000	0.033855
528.000000	0.033903
527.000000	0.034082
526.000000	0.034144
525.000000	0.034068
524.000000	0.033912
523.000000	0.034059
522.000000	0.034243
521.000000	0.034036
520.000000	0.034215
519.000000	0.034239
518.000000	0.034395
517.000000	0.034486
516.000000	0.034578
515.000000	0.034384
514.000000	0.034317
513.000000	0.034262
512.000000	0.034320
511.000000	0.034560
510.000000	0.034521
509.000000	0.034182
508.000000	0.034144
507.000000	0.033980
506.000000	0.033904
505.000000	0.034214
504.000000	0.034203
503.000000	0.034176
502.000000	0.034662
501.000000	0.034373
500.000000	0.033850
499.000000	0.034300
498.000000	0.034309
497.000000	0.033515
496.000000	0.033219
495.000000	0.033464
494.000000	0.033728
493.000000	0.033691
492.000000	0.033598
491.000000	0.033630
490.000000	0.033660
489.000000	0.033565
488.000000	0.033611
487.000000	0.033602
486.000000	0.033613
485.000000	0.033663
484.000000	0.033674
483.000000	0.033666
482.000000	0.033593
481.000000	0.033540
480.000000	0.033569
479.000000	0.033369
478.000000	0.033290
477.000000	0.033312
476.000000	0.033391
475.000000	0.033406
474.000000	0.033305
473.000000	0.033368
472.000000	0.033412
471.000000	0.033270
470.000000	0.033212
469.000000	0.033358
468.000000	0.033385
467.000000	0.033340
466.000000	0.033326
465.000000	0.033403
464.000000	0.033408
463.000000	0.033438
462.000000	0.033560
461.000000	0.033597
460.000000	0.033504
459.000000	0.033541
458.000000	0.033679
457.000000	0.033664
456.000000	0.033689
455.000000	0.033798
454.000000	0.033877
453.000000	0.033820
452.000000	0.033850
451.000000	0.034375
450.000000	0.034013
449.000000	0.033934
448.000000	0.033957
447.000000	0.034136
446.000000	0.034200
445.000000	0.034232
444.000000	0.034288
443.000000	0.034447
442.000000	0.034408
441.000000	0.034424
440.000000	0.034499
439.000000	0.034653
438.000000	0.034694
437.000000	0.034739
436.000000	0.034859
435.000000	0.034879
434.000000	0.034998
433.000000	0.034852
432.000000	0.034830
431.000000	0.034657
430.000000	0.034892
429.000000	0.035151
428.000000	0.035292
427.000000	0.035439
426.000000	0.035356
425.000000	0.034867
424.000000	0.035456
423.000000	0.035550
422.000000	0.035756
421.000000	0.035698
420.000000	0.035702
419.000000	0.035802
418.000000	0.035845
417.000000	0.035778
416.000000	0.036065
415.000000	0.035796
414.000000	0.036069
413.000000	0.036088
412.000000	0.036026
411.000000	0.036036
410.000000	0.036175
409.000000	0.036153
408.000000	0.036191
407.000000	0.036277
406.000000	0.036154
405.000000	0.036100
404.000000	0.036270
403.000000	0.036367
402.000000	0.036300
401.000000	0.036149
400.000000	0.036222
399.000000	0.036392
398.000000	0.036274
397.000000	0.036396
396.000000	0.036418
395.000000	0.036399
394.000000	0.036313
393.000000	0.036369
392.000000	0.036511
391.000000	0.036428
390.000000	0.036356
389.000000	0.036473
388.000000	0.036515
387.000000	0.036275
386.000000	0.036416
385.000000	0.036615
384.000000	0.036520
383.000000	0.036477
382.000000	0.036560
381.000000	0.036504
380.000000	0.036523
379.000000	0.036503
378.000000	0.035999
377.000000	0.035939
376.000000	0.036071
375.000000	0.036215
374.000000	0.036286
373.000000	0.036261
372.000000	0.036278
371.000000	0.036384
370.000000	0.036373
369.000000	0.036313
368.000000	0.036498
367.000000	0.036553
366.000000	0.036473
365.000000	0.036418
364.000000	0.036557
363.000000	0.036609
362.000000	0.036578
361.000000	0.036705
360.000000	0.036771
359.000000	0.036701
358.000000	0.036702
357.000000	0.036889
356.000000	0.036948
355.000000	0.036857
354.000000	0.036929
353.000000	0.037032
352.000000	0.037035
351.000000	0.037008
350.000000	0.037134
349.000000	0.037229
348.000000	0.037150
347.000000	0.037101
346.000000	0.037349
345.000000	0.037408
344.000000	0.037298
343.000000	0.037382
342.000000	0.037543
341.000000	0.037462
340.000000	0.037407
339.000000	0.037574
338.000000	0.037703
337.000000	0.037617
336.000000	0.037658
335.000000	0.037849
334.000000	0.037924
333.000000	0.037870
332.000000	0.037982
331.000000	0.038152
330.000000	0.038111
329.000000	0.038091
328.000000	0.038231
327.000000	0.038317
326.000000	0.038365
325.000000	0.038436
324.000000	0.038539
323.000000	0.038486
322.000000	0.038538
321.000000	0.038705
320.000000	0.038863
319.000000	0.038800
318.000000	0.038752
317.000000	0.038663
316.000000	0.038716
315.000000	0.039023
314.000000	0.039130
313.000000	0.039103
312.000000	0.039203
311.000000	0.039357
310.000000	0.039357
309.000000	0.039393
308.000000	0.039597
307.000000	0.039782
306.000000	0.039808
305.000000	0.039816
304.000000	0.040057
303.000000	0.040237
302.000000	0.040211
301.000000	0.040327
300.000000	0.040502
299.000000	0.040550
298.000000	0.040644
297.000000	0.040855
296.000000	0.040971
295.000000	0.040957
294.000000	0.041062
293.000000	0.041257
292.000000	0.041446
291.000000	0.041538
290.000000	0.041703
289.000000	0.041902
288.000000	0.042012
287.000000	0.042144
286.000000	0.042382
285.000000	0.042495
284.000000	0.042537
283.000000	0.042723
282.000000	0.042997
281.000000	0.043062
280.000000	0.043177
279.000000	0.043390
278.000000	0.043558
277.000000	0.043600
276.000000	0.043727
275.000000	0.043885
274.000000	0.044020
273.000000	0.044111
272.000000	0.044287
271.000000	0.044508
270.000000	0.044626
269.000000	0.044680
268.000000	0.044843
267.000000	0.045022
266.000000	0.045095
265.000000	0.045229
264.000000	0.045550
263.000000	0.045648
262.000000	0.045682
261.000000	0.045996
260.000000	0.046288
259.000000	0.046388
258.000000	0.046583
257.000000	0.046851
256.000000	0.047018
255.000000	0.047197
254.000000	0.047541
253.000000	0.047858
252.000000	0.048097
251.000000	0.048297
250.000000	0.048723
249.000000	0.049110
248.000000	0.049273
247.000000	0.049667
246.000000	0.050191
245.000000	0.050476
244.000000	0.050785
243.000000	0.051287
242.000000	0.051933
241.000000	0.052438
240.000000	0.052802
239.000000	0.053371
238.000000	0.053792
237.000000	0.054332
236.000000	0.055006
235.000000	0.055611
234.000000	0.056150
233.000000	0.056586
232.000000	0.057292
231.000000	0.058084
230.000000	0.058625
229.000000	0.059264
228.000000	0.060119
227.000000	0.060754
226.000000	0.061426
225.000000	0.062179
224.000000	0.063109
223.000000	0.063887
222.000000	0.064665
221.000000	0.065597
220.000000	0.066659
219.000000	0.067557
218.000000	0.068666
217.000000	0.070285
216.000000	0.071476
215.000000	0.072874
214.000000	0.074815
213.000000	0.077033
212.000000	0.079164
211.000000	0.081634
210.000000	0.084657
209.000000	0.087968
208.000000	0.091538
207.000000	0.095865
206.000000	0.100807
205.000000	0.106171
204.000000	0.112208
203.000000	0.119129
202.000000	0.127255
201.000000	0.136451
200.000000	0.146870
