PE UV       SUBTECH     SPECTRUM    ASCII       PEDS        4.00        	
-1	
KY304B201010_1CM_CELL.Sample.Raw.asc	
10.10.2029	
09:13:35.00	
10.10.2029	
09:13:35.00	
Hermanni Kaartokallio	
	
200.000000	
1	
Lambda 650	
650N8121101	
PerkinElmer UV WinLab 6.0.2.0723 / 1.61.00 Lambda 650	
	
0	
0	
2	
0	
0	
UV/VIS	
1	
1	
1	
150mm sphere / downward view	
0	
0	
0	
0	
Fix	
 	
0	
0.24	
0	
0	
0	
 	
 	
 	
0	
 	
0	
319.2	
0	
Front	
100	
 	
 	
 	
0	
0	
0	
 	
0	
 	
 	
 	
0	
 	
 	
0	
0	
0	
0	
0	
 	
 	
 	
 	
0	
0	
#HDR	
-1	
-1	
#GR	
nm	
A	
1.0	
0.0	
800.000000	
-1.000000	
601	
8	
1.754389	
0.033487	
#DATA	
800.000000	0.041437
799.000000	0.040738
798.000000	0.041364
797.000000	0.041093
796.000000	0.041662
795.000000	0.041737
794.000000	0.041732
793.000000	0.041429
792.000000	0.041697
791.000000	0.041803
790.000000	0.042286
789.000000	0.041755
788.000000	0.042326
787.000000	0.042348
786.000000	0.042639
785.000000	0.042586
784.000000	0.042649
783.000000	0.042624
782.000000	0.043046
781.000000	0.043146
780.000000	0.043059
779.000000	0.043397
778.000000	0.042918
777.000000	0.043141
776.000000	0.043297
775.000000	0.043210
774.000000	0.043435
773.000000	0.043414
772.000000	0.043368
771.000000	0.043619
770.000000	0.043993
769.000000	0.043798
768.000000	0.043959
767.000000	0.044036
766.000000	0.043650
765.000000	0.044022
764.000000	0.044072
763.000000	0.043581
762.000000	0.043968
761.000000	0.044007
760.000000	0.043812
759.000000	0.043676
758.000000	0.043831
757.000000	0.044019
756.000000	0.043841
755.000000	0.043926
754.000000	0.043989
753.000000	0.043797
752.000000	0.043745
751.000000	0.044007
750.000000	0.043828
749.000000	0.043728
748.000000	0.043785
747.000000	0.043648
746.000000	0.043496
745.000000	0.043564
744.000000	0.043632
743.000000	0.043575
742.000000	0.043847
741.000000	0.043611
740.000000	0.043556
739.000000	0.043189
738.000000	0.043136
737.000000	0.042887
736.000000	0.042717
735.000000	0.042329
734.000000	0.042076
733.000000	0.041600
732.000000	0.041188
731.000000	0.040590
730.000000	0.039992
729.000000	0.039472
728.000000	0.039101
727.000000	0.038855
726.000000	0.038747
725.000000	0.038527
724.000000	0.038032
723.000000	0.037571
722.000000	0.037425
721.000000	0.037215
720.000000	0.036829
719.000000	0.036545
718.000000	0.036635
717.000000	0.036734
716.000000	0.036626
715.000000	0.036378
714.000000	0.035977
713.000000	0.035786
712.000000	0.035566
711.000000	0.035515
710.000000	0.035564
709.000000	0.035365
708.000000	0.035245
707.000000	0.035177
706.000000	0.035072
705.000000	0.034899
704.000000	0.034873
703.000000	0.034722
702.000000	0.034620
701.000000	0.034727
700.000000	0.034775
699.000000	0.034750
698.000000	0.034533
697.000000	0.034507
696.000000	0.034436
695.000000	0.034215
694.000000	0.034255
693.000000	0.034310
692.000000	0.034282
691.000000	0.034269
690.000000	0.034085
689.000000	0.034095
688.000000	0.034252
687.000000	0.034153
686.000000	0.034089
685.000000	0.034033
684.000000	0.033934
683.000000	0.033820
682.000000	0.034030
681.000000	0.034069
680.000000	0.033953
679.000000	0.033973
678.000000	0.034063
677.000000	0.033939
676.000000	0.033920
675.000000	0.033959
674.000000	0.033925
673.000000	0.034012
672.000000	0.034055
671.000000	0.033900
670.000000	0.033968
669.000000	0.033975
668.000000	0.034017
667.000000	0.033944
666.000000	0.033876
665.000000	0.034167
664.000000	0.034008
663.000000	0.034150
662.000000	0.034022
661.000000	0.033794
660.000000	0.033928
659.000000	0.033914
658.000000	0.033802
657.000000	0.033989
656.000000	0.033857
655.000000	0.033961
654.000000	0.033969
653.000000	0.033818
652.000000	0.033794
651.000000	0.033831
650.000000	0.033765
649.000000	0.033675
648.000000	0.033772
647.000000	0.033719
646.000000	0.033801
645.000000	0.033696
644.000000	0.033757
643.000000	0.033683
642.000000	0.033834
641.000000	0.033799
640.000000	0.033770
639.000000	0.033759
638.000000	0.033758
637.000000	0.033732
636.000000	0.033804
635.000000	0.033746
634.000000	0.033715
633.000000	0.033766
632.000000	0.033857
631.000000	0.033801
630.000000	0.033850
629.000000	0.033831
628.000000	0.033785
627.000000	0.033938
626.000000	0.033749
625.000000	0.033728
624.000000	0.033843
623.000000	0.033774
622.000000	0.034067
621.000000	0.033877
620.000000	0.033750
619.000000	0.033780
618.000000	0.033793
617.000000	0.034058
616.000000	0.033847
615.000000	0.033960
614.000000	0.033894
613.000000	0.033997
612.000000	0.033816
611.000000	0.033903
610.000000	0.034046
609.000000	0.033957
608.000000	0.034015
607.000000	0.034040
606.000000	0.034113
605.000000	0.033931
604.000000	0.033986
603.000000	0.033994
602.000000	0.033837
601.000000	0.033709
600.000000	0.034041
599.000000	0.033891
598.000000	0.033725
597.000000	0.033892
596.000000	0.033972
595.000000	0.033840
594.000000	0.033487
593.000000	0.033665
592.000000	0.033738
591.000000	0.033664
590.000000	0.033717
589.000000	0.033849
588.000000	0.033730
587.000000	0.033600
586.000000	0.033729
585.000000	0.033662
584.000000	0.033608
583.000000	0.033666
582.000000	0.033778
581.000000	0.033642
580.000000	0.033709
579.000000	0.033708
578.000000	0.033729
577.000000	0.033640
576.000000	0.033599
575.000000	0.033659
574.000000	0.033801
573.000000	0.033762
572.000000	0.033693
571.000000	0.033680
570.000000	0.033588
569.000000	0.033842
568.000000	0.033707
567.000000	0.033943
566.000000	0.033858
565.000000	0.033875
564.000000	0.033920
563.000000	0.033942
562.000000	0.033991
561.000000	0.033812
560.000000	0.033693
559.000000	0.033872
558.000000	0.033928
557.000000	0.033967
556.000000	0.033805
555.000000	0.033703
554.000000	0.033892
553.000000	0.034035
552.000000	0.034083
551.000000	0.033954
550.000000	0.033912
549.000000	0.034019
548.000000	0.034133
547.000000	0.034053
546.000000	0.034024
545.000000	0.034156
544.000000	0.034232
543.000000	0.034170
542.000000	0.034029
541.000000	0.034028
540.000000	0.034118
539.000000	0.034110
538.000000	0.034149
537.000000	0.034252
536.000000	0.034283
535.000000	0.034299
534.000000	0.034384
533.000000	0.034257
532.000000	0.034369
531.000000	0.034387
530.000000	0.034278
529.000000	0.034200
528.000000	0.034369
527.000000	0.034501
526.000000	0.034543
525.000000	0.034425
524.000000	0.034504
523.000000	0.034490
522.000000	0.034629
521.000000	0.034686
520.000000	0.034676
519.000000	0.034706
518.000000	0.034658
517.000000	0.034568
516.000000	0.034579
515.000000	0.034696
514.000000	0.034754
513.000000	0.034731
512.000000	0.034736
511.000000	0.034742
510.000000	0.034693
509.000000	0.034662
508.000000	0.034806
507.000000	0.034701
506.000000	0.034742
505.000000	0.034749
504.000000	0.034778
503.000000	0.034970
502.000000	0.034973
501.000000	0.034803
500.000000	0.034773
499.000000	0.034932
498.000000	0.034992
497.000000	0.034879
496.000000	0.034739
495.000000	0.034824
494.000000	0.034836
493.000000	0.034822
492.000000	0.034979
491.000000	0.035058
490.000000	0.035036
489.000000	0.035118
488.000000	0.035229
487.000000	0.035273
486.000000	0.035538
485.000000	0.035781
484.000000	0.035777
483.000000	0.035898
482.000000	0.036009
481.000000	0.036040
480.000000	0.036005
479.000000	0.035868
478.000000	0.035835
477.000000	0.035858
476.000000	0.036153
475.000000	0.036154
474.000000	0.036107
473.000000	0.035920
472.000000	0.035964
471.000000	0.036265
470.000000	0.036288
469.000000	0.036365
468.000000	0.036333
467.000000	0.036248
466.000000	0.036359
465.000000	0.036328
464.000000	0.036343
463.000000	0.036433
462.000000	0.036537
461.000000	0.036589
460.000000	0.036664
459.000000	0.036811
458.000000	0.036831
457.000000	0.036721
456.000000	0.036972
455.000000	0.037098
454.000000	0.037082
453.000000	0.037156
452.000000	0.037169
451.000000	0.037315
450.000000	0.037262
449.000000	0.037446
448.000000	0.037518
447.000000	0.037548
446.000000	0.037685
445.000000	0.037731
444.000000	0.037650
443.000000	0.037942
442.000000	0.038095
441.000000	0.038063
440.000000	0.038017
439.000000	0.038260
438.000000	0.038138
437.000000	0.038154
436.000000	0.038558
435.000000	0.038481
434.000000	0.038592
433.000000	0.038820
432.000000	0.038724
431.000000	0.038902
430.000000	0.039239
429.000000	0.039165
428.000000	0.039044
427.000000	0.039314
426.000000	0.039524
425.000000	0.039348
424.000000	0.039651
423.000000	0.039877
422.000000	0.039860
421.000000	0.040037
420.000000	0.040114
419.000000	0.040439
418.000000	0.040380
417.000000	0.040632
416.000000	0.040340
415.000000	0.040647
414.000000	0.041043
413.000000	0.041429
412.000000	0.041155
411.000000	0.041280
410.000000	0.041447
409.000000	0.041517
408.000000	0.041945
407.000000	0.041981
406.000000	0.041904
405.000000	0.042311
404.000000	0.041980
403.000000	0.042737
402.000000	0.042806
401.000000	0.042985
400.000000	0.043108
399.000000	0.042766
398.000000	0.043144
397.000000	0.043373
396.000000	0.044080
395.000000	0.043663
394.000000	0.043755
393.000000	0.044235
392.000000	0.044373
391.000000	0.044606
390.000000	0.044746
389.000000	0.045032
388.000000	0.045311
387.000000	0.045912
386.000000	0.045731
385.000000	0.045641
384.000000	0.046030
383.000000	0.045973
382.000000	0.046311
381.000000	0.046862
380.000000	0.047212
379.000000	0.047462
378.000000	0.047668
377.000000	0.047198
376.000000	0.047642
375.000000	0.048011
374.000000	0.048343
373.000000	0.049262
372.000000	0.049179
371.000000	0.049098
370.000000	0.050063
369.000000	0.050508
368.000000	0.050342
367.000000	0.051018
366.000000	0.050897
365.000000	0.051387
364.000000	0.051013
363.000000	0.051948
362.000000	0.052257
361.000000	0.052468
360.000000	0.052875
359.000000	0.053691
358.000000	0.053156
357.000000	0.053853
356.000000	0.053824
355.000000	0.054768
354.000000	0.054905
353.000000	0.055567
352.000000	0.056018
351.000000	0.056416
350.000000	0.056853
349.000000	0.057527
348.000000	0.057392
347.000000	0.057964
346.000000	0.057834
345.000000	0.058611
344.000000	0.059419
343.000000	0.059745
342.000000	0.060091
341.000000	0.060580
340.000000	0.060679
339.000000	0.061863
338.000000	0.061876
337.000000	0.061956
336.000000	0.062546
335.000000	0.063594
334.000000	0.063935
333.000000	0.064317
332.000000	0.065061
331.000000	0.065323
330.000000	0.066217
329.000000	0.066739
328.000000	0.067431
327.000000	0.068046
326.000000	0.068568
325.000000	0.069306
324.000000	0.069983
323.000000	0.070706
322.000000	0.070776
321.000000	0.072072
320.000000	0.072615
319.000000	0.073191
318.000000	0.073400
317.000000	0.074003
316.000000	0.074679
315.000000	0.075677
314.000000	0.076650
313.000000	0.076655
312.000000	0.077407
311.000000	0.078226
310.000000	0.079210
309.000000	0.080556
308.000000	0.081644
307.000000	0.082383
306.000000	0.083122
305.000000	0.084187
304.000000	0.084886
303.000000	0.086439
302.000000	0.087757
301.000000	0.088975
300.000000	0.089605
299.000000	0.090416
298.000000	0.091703
297.000000	0.092572
296.000000	0.093994
295.000000	0.095285
294.000000	0.096591
293.000000	0.097965
292.000000	0.099224
291.000000	0.100262
290.000000	0.101869
289.000000	0.103862
288.000000	0.105179
287.000000	0.106358
286.000000	0.108241
285.000000	0.109876
284.000000	0.111197
283.000000	0.112729
282.000000	0.114608
281.000000	0.116036
280.000000	0.117648
279.000000	0.118845
278.000000	0.119926
277.000000	0.122019
276.000000	0.123689
275.000000	0.125663
274.000000	0.126910
273.000000	0.128369
272.000000	0.129688
271.000000	0.131647
270.000000	0.134308
269.000000	0.135162
268.000000	0.136075
267.000000	0.137930
266.000000	0.139468
265.000000	0.140390
264.000000	0.141353
263.000000	0.143298
262.000000	0.144669
261.000000	0.146789
260.000000	0.147516
259.000000	0.148062
258.000000	0.149919
257.000000	0.150690
256.000000	0.151338
255.000000	0.152729
254.000000	0.153464
253.000000	0.154669
252.000000	0.155938
251.000000	0.157426
250.000000	0.158373
249.000000	0.159442
248.000000	0.161471
247.000000	0.163958
246.000000	0.163509
245.000000	0.164302
244.000000	0.166965
243.000000	0.169053
242.000000	0.170422
241.000000	0.172831
240.000000	0.173772
239.000000	0.176636
238.000000	0.177832
237.000000	0.181607
236.000000	0.183561
235.000000	0.187538
234.000000	0.190567
233.000000	0.193961
232.000000	0.197074
231.000000	0.201375
230.000000	0.203341
229.000000	0.207029
228.000000	0.213045
227.000000	0.218430
226.000000	0.221371
225.000000	0.227184
224.000000	0.234438
223.000000	0.239235
222.000000	0.246313
221.000000	0.253099
220.000000	0.262107
219.000000	0.272320
218.000000	0.284633
217.000000	0.296526
216.000000	0.311891
215.000000	0.328772
214.000000	0.352083
213.000000	0.378035
212.000000	0.407128
211.000000	0.441011
210.000000	0.482435
209.000000	0.531582
208.000000	0.591559
207.000000	0.658506
206.000000	0.737856
205.000000	0.828893
204.000000	0.944911
203.000000	1.082212
202.000000	1.257199
201.000000	1.476196
200.000000	1.754389
