PE UV       SUBTECH     SPECTRUM    ASCII       PEDS        4.00        	
-1	
KY300201010_1CM_CELL.Sample.Raw.asc	
10.10.2029	
09:53:09.00	
10.10.2029	
09:53:09.00	
Hermanni Kaartokallio	
	
200.000000	
1	
Lambda 650	
650N8121101	
PerkinElmer UV WinLab 6.0.2.0723 / 1.61.00 Lambda 650	
	
0	
0	
2	
0	
0	
UV/VIS	
1	
1	
1	
150mm sphere / downward view	
0	
0	
0	
0	
Fix	
 	
0	
0.24	
0	
0	
0	
 	
 	
 	
0	
 	
0	
319.2	
0	
Front	
100	
 	
 	
 	
0	
0	
0	
 	
0	
 	
 	
 	
0	
 	
 	
0	
0	
0	
0	
0	
 	
 	
 	
 	
0	
0	
#HDR	
-1	
-1	
#GR	
nm	
A	
1.0	
0.0	
800.000000	
-1.000000	
601	
8	
2.734419	
0.037746	
#DATA	
800.000000	0.042493
799.000000	0.042425
798.000000	0.042495
797.000000	0.042637
796.000000	0.042963
795.000000	0.042971
794.000000	0.042295
793.000000	0.042784
792.000000	0.043414
791.000000	0.043982
790.000000	0.043768
789.000000	0.043292
788.000000	0.043382
787.000000	0.043706
786.000000	0.044547
785.000000	0.044116
784.000000	0.044449
783.000000	0.043901
782.000000	0.044717
781.000000	0.044877
780.000000	0.044182
779.000000	0.044654
778.000000	0.044672
777.000000	0.044387
776.000000	0.044899
775.000000	0.044738
774.000000	0.045020
773.000000	0.044918
772.000000	0.045095
771.000000	0.044932
770.000000	0.045103
769.000000	0.045273
768.000000	0.045273
767.000000	0.045761
766.000000	0.045518
765.000000	0.045793
764.000000	0.045771
763.000000	0.045326
762.000000	0.045820
761.000000	0.045328
760.000000	0.045600
759.000000	0.045913
758.000000	0.045686
757.000000	0.045871
756.000000	0.045988
755.000000	0.046226
754.000000	0.046169
753.000000	0.045731
752.000000	0.045740
751.000000	0.046037
750.000000	0.046166
749.000000	0.046063
748.000000	0.045996
747.000000	0.046091
746.000000	0.045828
745.000000	0.046028
744.000000	0.045944
743.000000	0.045915
742.000000	0.046130
741.000000	0.046029
740.000000	0.045785
739.000000	0.045768
738.000000	0.045767
737.000000	0.045494
736.000000	0.045086
735.000000	0.044704
734.000000	0.044541
733.000000	0.044216
732.000000	0.043906
731.000000	0.043310
730.000000	0.042593
729.000000	0.042222
728.000000	0.041939
727.000000	0.041560
726.000000	0.041473
725.000000	0.041255
724.000000	0.040639
723.000000	0.040457
722.000000	0.040406
721.000000	0.040159
720.000000	0.039846
719.000000	0.039522
718.000000	0.039508
717.000000	0.039677
716.000000	0.039556
715.000000	0.039319
714.000000	0.038980
713.000000	0.038636
712.000000	0.038599
711.000000	0.038602
710.000000	0.038525
709.000000	0.038457
708.000000	0.038425
707.000000	0.038488
706.000000	0.038384
705.000000	0.038203
704.000000	0.038170
703.000000	0.037972
702.000000	0.037818
701.000000	0.037985
700.000000	0.038064
699.000000	0.037954
698.000000	0.037864
697.000000	0.037865
696.000000	0.037935
695.000000	0.037854
694.000000	0.037865
693.000000	0.037845
692.000000	0.037831
691.000000	0.037831
690.000000	0.037746
689.000000	0.037863
688.000000	0.037892
687.000000	0.037914
686.000000	0.037932
685.000000	0.037783
684.000000	0.037882
683.000000	0.037895
682.000000	0.038061
681.000000	0.038076
680.000000	0.038041
679.000000	0.038165
678.000000	0.038240
677.000000	0.038203
676.000000	0.038341
675.000000	0.038235
674.000000	0.038168
673.000000	0.038385
672.000000	0.038477
671.000000	0.038472
670.000000	0.038582
669.000000	0.038604
668.000000	0.038778
667.000000	0.038826
666.000000	0.038928
665.000000	0.039115
664.000000	0.038944
663.000000	0.039070
662.000000	0.038964
661.000000	0.038981
660.000000	0.039153
659.000000	0.039144
658.000000	0.039199
657.000000	0.039316
656.000000	0.039249
655.000000	0.039286
654.000000	0.039336
653.000000	0.039251
652.000000	0.039289
651.000000	0.039281
650.000000	0.039337
649.000000	0.039440
648.000000	0.039416
647.000000	0.039436
646.000000	0.039552
645.000000	0.039673
644.000000	0.039621
643.000000	0.039695
642.000000	0.039830
641.000000	0.039760
640.000000	0.039925
639.000000	0.040069
638.000000	0.040023
637.000000	0.040155
636.000000	0.040216
635.000000	0.040320
634.000000	0.040122
633.000000	0.040292
632.000000	0.040590
631.000000	0.040495
630.000000	0.040425
629.000000	0.040774
628.000000	0.040772
627.000000	0.040895
626.000000	0.040835
625.000000	0.041032
624.000000	0.041081
623.000000	0.041057
622.000000	0.041306
621.000000	0.041385
620.000000	0.041181
619.000000	0.041267
618.000000	0.041626
617.000000	0.041739
616.000000	0.041734
615.000000	0.041817
614.000000	0.041833
613.000000	0.041990
612.000000	0.041895
611.000000	0.042084
610.000000	0.042466
609.000000	0.042207
608.000000	0.042533
607.000000	0.042501
606.000000	0.042613
605.000000	0.042787
604.000000	0.042758
603.000000	0.042834
602.000000	0.042972
601.000000	0.043075
600.000000	0.042963
599.000000	0.043123
598.000000	0.043025
597.000000	0.043239
596.000000	0.043476
595.000000	0.043313
594.000000	0.043468
593.000000	0.043492
592.000000	0.043540
591.000000	0.043672
590.000000	0.043959
589.000000	0.043886
588.000000	0.043900
587.000000	0.043837
586.000000	0.044238
585.000000	0.044242
584.000000	0.044354
583.000000	0.044473
582.000000	0.044692
581.000000	0.044756
580.000000	0.044858
579.000000	0.044932
578.000000	0.045040
577.000000	0.045182
576.000000	0.045367
575.000000	0.045320
574.000000	0.045635
573.000000	0.045621
572.000000	0.045814
571.000000	0.045946
570.000000	0.046042
569.000000	0.046291
568.000000	0.046227
567.000000	0.046690
566.000000	0.046640
565.000000	0.046722
564.000000	0.047044
563.000000	0.047236
562.000000	0.047283
561.000000	0.047246
560.000000	0.047356
559.000000	0.047527
558.000000	0.047778
557.000000	0.048061
556.000000	0.048128
555.000000	0.048268
554.000000	0.048399
553.000000	0.048563
552.000000	0.048824
551.000000	0.048942
550.000000	0.048989
549.000000	0.049324
548.000000	0.049347
547.000000	0.049624
546.000000	0.049863
545.000000	0.050029
544.000000	0.050261
543.000000	0.050417
542.000000	0.050556
541.000000	0.050781
540.000000	0.050886
539.000000	0.051088
538.000000	0.051138
537.000000	0.051484
536.000000	0.051684
535.000000	0.051926
534.000000	0.052151
533.000000	0.052256
532.000000	0.052497
531.000000	0.052716
530.000000	0.052839
529.000000	0.052933
528.000000	0.053334
527.000000	0.053732
526.000000	0.053962
525.000000	0.054017
524.000000	0.054267
523.000000	0.054518
522.000000	0.054774
521.000000	0.055006
520.000000	0.055165
519.000000	0.055395
518.000000	0.055775
517.000000	0.055959
516.000000	0.056192
515.000000	0.056392
514.000000	0.056598
513.000000	0.056911
512.000000	0.057191
511.000000	0.057396
510.000000	0.057598
509.000000	0.057913
508.000000	0.058388
507.000000	0.058704
506.000000	0.059092
505.000000	0.059166
504.000000	0.059359
503.000000	0.059644
502.000000	0.059978
501.000000	0.060280
500.000000	0.060464
499.000000	0.060941
498.000000	0.061194
497.000000	0.061300
496.000000	0.061646
495.000000	0.061959
494.000000	0.062172
493.000000	0.062644
492.000000	0.063150
491.000000	0.063472
490.000000	0.063679
489.000000	0.064074
488.000000	0.064549
487.000000	0.065002
486.000000	0.065514
485.000000	0.066022
484.000000	0.066428
483.000000	0.066898
482.000000	0.067318
481.000000	0.067720
480.000000	0.068210
479.000000	0.068443
478.000000	0.068703
477.000000	0.069174
476.000000	0.069778
475.000000	0.070265
474.000000	0.070692
473.000000	0.071123
472.000000	0.071681
471.000000	0.072235
470.000000	0.072716
469.000000	0.073345
468.000000	0.073828
467.000000	0.074081
466.000000	0.074612
465.000000	0.075252
464.000000	0.075755
463.000000	0.076172
462.000000	0.076864
461.000000	0.077483
460.000000	0.078159
459.000000	0.078857
458.000000	0.079295
457.000000	0.079989
456.000000	0.080627
455.000000	0.081239
454.000000	0.081998
453.000000	0.082609
452.000000	0.083275
451.000000	0.084171
450.000000	0.084778
449.000000	0.085747
448.000000	0.086510
447.000000	0.087025
446.000000	0.087920
445.000000	0.088807
444.000000	0.089621
443.000000	0.090534
442.000000	0.091650
441.000000	0.092370
440.000000	0.092980
439.000000	0.093859
438.000000	0.094607
437.000000	0.095591
436.000000	0.096857
435.000000	0.097784
434.000000	0.098840
433.000000	0.100008
432.000000	0.100959
431.000000	0.102068
430.000000	0.103007
429.000000	0.104067
428.000000	0.105142
427.000000	0.106551
426.000000	0.107633
425.000000	0.108746
424.000000	0.110117
423.000000	0.111069
422.000000	0.112216
421.000000	0.113777
420.000000	0.115150
419.000000	0.116576
418.000000	0.117635
417.000000	0.119359
416.000000	0.120531
415.000000	0.121899
414.000000	0.123530
413.000000	0.125073
412.000000	0.126223
411.000000	0.127877
410.000000	0.129570
409.000000	0.131028
408.000000	0.133019
407.000000	0.134385
406.000000	0.136121
405.000000	0.137753
404.000000	0.139527
403.000000	0.141765
402.000000	0.143356
401.000000	0.145212
400.000000	0.146979
399.000000	0.148710
398.000000	0.150973
397.000000	0.152969
396.000000	0.155153
395.000000	0.156912
394.000000	0.159044
393.000000	0.161249
392.000000	0.163408
391.000000	0.165963
390.000000	0.168025
389.000000	0.170168
388.000000	0.172511
387.000000	0.174923
386.000000	0.177631
385.000000	0.179529
384.000000	0.182442
383.000000	0.184795
382.000000	0.187484
381.000000	0.190477
380.000000	0.192850
379.000000	0.195872
378.000000	0.198973
377.000000	0.199864
376.000000	0.202935
375.000000	0.206647
374.000000	0.209245
373.000000	0.212821
372.000000	0.215913
371.000000	0.218462
370.000000	0.222354
369.000000	0.225338
368.000000	0.228977
367.000000	0.232519
366.000000	0.235755
365.000000	0.238992
364.000000	0.242423
363.000000	0.246378
362.000000	0.249825
361.000000	0.253514
360.000000	0.257073
359.000000	0.261446
358.000000	0.264855
357.000000	0.268774
356.000000	0.272610
355.000000	0.276734
354.000000	0.280904
353.000000	0.285240
352.000000	0.289665
351.000000	0.293464
350.000000	0.297624
349.000000	0.302074
348.000000	0.306503
347.000000	0.310716
346.000000	0.314835
345.000000	0.319669
344.000000	0.324422
343.000000	0.329059
342.000000	0.333960
341.000000	0.338297
340.000000	0.342485
339.000000	0.347671
338.000000	0.352376
337.000000	0.357343
336.000000	0.362198
335.000000	0.366989
334.000000	0.372415
333.000000	0.377796
332.000000	0.382883
331.000000	0.387950
330.000000	0.393266
329.000000	0.398504
328.000000	0.403710
327.000000	0.409729
326.000000	0.414972
325.000000	0.420382
324.000000	0.426348
323.000000	0.432504
322.000000	0.438412
321.000000	0.444569
320.000000	0.449741
319.000000	0.456058
318.000000	0.461611
317.000000	0.466908
316.000000	0.473138
315.000000	0.479557
314.000000	0.485534
313.000000	0.491201
312.000000	0.497535
311.000000	0.503892
310.000000	0.510835
309.000000	0.518362
308.000000	0.524897
307.000000	0.530199
306.000000	0.536503
305.000000	0.543632
304.000000	0.550577
303.000000	0.558249
302.000000	0.565148
301.000000	0.572033
300.000000	0.578944
299.000000	0.585504
298.000000	0.592624
297.000000	0.600695
296.000000	0.607988
295.000000	0.614934
294.000000	0.623115
293.000000	0.631913
292.000000	0.639723
291.000000	0.647096
290.000000	0.655390
289.000000	0.664208
288.000000	0.672605
287.000000	0.680585
286.000000	0.689239
285.000000	0.698388
284.000000	0.706816
283.000000	0.715480
282.000000	0.724439
281.000000	0.732845
280.000000	0.741697
279.000000	0.750025
278.000000	0.758829
277.000000	0.768439
276.000000	0.778273
275.000000	0.787461
274.000000	0.795431
273.000000	0.803958
272.000000	0.813702
271.000000	0.823432
270.000000	0.832003
269.000000	0.839866
268.000000	0.849347
267.000000	0.858583
266.000000	0.865508
265.000000	0.873493
264.000000	0.882068
263.000000	0.889897
262.000000	0.897335
261.000000	0.905948
260.000000	0.913954
259.000000	0.919848
258.000000	0.928239
257.000000	0.935875
256.000000	0.943172
255.000000	0.949982
254.000000	0.956677
253.000000	0.963479
252.000000	0.972064
251.000000	0.981778
250.000000	0.989900
249.000000	0.999585
248.000000	1.009127
247.000000	1.018993
246.000000	1.029572
245.000000	1.041083
244.000000	1.052431
243.000000	1.064600
242.000000	1.076939
241.000000	1.092272
240.000000	1.105041
239.000000	1.123894
238.000000	1.139583
237.000000	1.158718
236.000000	1.177966
235.000000	1.201290
234.000000	1.221037
233.000000	1.245115
232.000000	1.268441
231.000000	1.297433
230.000000	1.327336
229.000000	1.357386
228.000000	1.389934
227.000000	1.429439
226.000000	1.461278
225.000000	1.503420
224.000000	1.551655
223.000000	1.597210
222.000000	1.648458
221.000000	1.701969
220.000000	1.763511
219.000000	1.813430
218.000000	1.881566
217.000000	1.958533
216.000000	2.001280
215.000000	2.065034
214.000000	2.127010
213.000000	2.196731
212.000000	2.294453
211.000000	2.349082
210.000000	2.389339
209.000000	2.428670
208.000000	2.465319
207.000000	2.533034
206.000000	2.567351
205.000000	2.652282
204.000000	2.613234
203.000000	2.643751
202.000000	2.734419
201.000000	2.603134
200.000000	2.497895
