PE UV       SUBTECH     SPECTRUM    ASCII       PEDS        4.00        
   -1
KI6-03A.Sample.Raw.asc
11/10/21
10:51:57.00
11/10/21
10:51:57.00
Hermanni Kaartokallio

200.000000
1
Lambda 650
650N8121101
PerkinElmer UV WinLab 6.0.2.0723 / 1.61.00 Lambda 650

0
0
2
0
0
UV/VIS
1
1
1
uv/vis/nir detector
0
0
0
0
Fix
 
0
0.24
0
0
0
 
 
 
0
 
0
319.2
0
Front
100
 
 
 
0
0
0
 
0
 
 
 
0
 
 
0
0
0
0
0
 
 
 
 
0
0
#HDR
-1
-1
#GR
nm
A
1.0
0.0
800.000000
-1.000000
601
8
1.540745
0.033017
#DATA
800.000000	0.041085
799.000000	0.041060
798.000000	0.041321
797.000000	0.041311
796.000000	0.041389
795.000000	0.041409
794.000000	0.041694
793.000000	0.041554
792.000000	0.041600
791.000000	0.041657
790.000000	0.041937
789.000000	0.041932
788.000000	0.041837
787.000000	0.041951
786.000000	0.042065
785.000000	0.042171
784.000000	0.042290
783.000000	0.042297
782.000000	0.042476
781.000000	0.042407
780.000000	0.042313
779.000000	0.042531
778.000000	0.042494
777.000000	0.042443
776.000000	0.042530
775.000000	0.042670
774.000000	0.042672
773.000000	0.042634
772.000000	0.042833
771.000000	0.042773
770.000000	0.042714
769.000000	0.042853
768.000000	0.042891
767.000000	0.042940
766.000000	0.042940
765.000000	0.042972
764.000000	0.043086
763.000000	0.043041
762.000000	0.043104
761.000000	0.043249
760.000000	0.043169
759.000000	0.043168
758.000000	0.043228
757.000000	0.043285
756.000000	0.043222
755.000000	0.043177
754.000000	0.043306
753.000000	0.043377
752.000000	0.043332
751.000000	0.043360
750.000000	0.043417
749.000000	0.043420
748.000000	0.043361
747.000000	0.043316
746.000000	0.043441
745.000000	0.043335
744.000000	0.043271
743.000000	0.043288
742.000000	0.043393
741.000000	0.043241
740.000000	0.043128
739.000000	0.043106
738.000000	0.042997
737.000000	0.042698
736.000000	0.042470
735.000000	0.042235
734.000000	0.041769
733.000000	0.041305
732.000000	0.040832
731.000000	0.040331
730.000000	0.039860
729.000000	0.039326
728.000000	0.038912
727.000000	0.038520
726.000000	0.038169
725.000000	0.037942
724.000000	0.037713
723.000000	0.037340
722.000000	0.037152
721.000000	0.037020
720.000000	0.036778
719.000000	0.036488
718.000000	0.036277
717.000000	0.036100
716.000000	0.035890
715.000000	0.035646
714.000000	0.035543
713.000000	0.035460
712.000000	0.035236
711.000000	0.035063
710.000000	0.034960
709.000000	0.034817
708.000000	0.034641
707.000000	0.034497
706.000000	0.034387
705.000000	0.034236
704.000000	0.034133
703.000000	0.034046
702.000000	0.033915
701.000000	0.033776
700.000000	0.033728
699.000000	0.033791
698.000000	0.033724
697.000000	0.033594
696.000000	0.033569
695.000000	0.033552
694.000000	0.033453
693.000000	0.033394
692.000000	0.033416
691.000000	0.033351
690.000000	0.033248
689.000000	0.033277
688.000000	0.033217
687.000000	0.033161
686.000000	0.033205
685.000000	0.033263
684.000000	0.033201
683.000000	0.033131
682.000000	0.033114
681.000000	0.033122
680.000000	0.033160
679.000000	0.033103
678.000000	0.033124
677.000000	0.033153
676.000000	0.033097
675.000000	0.033062
674.000000	0.033073
673.000000	0.033100
672.000000	0.033105
671.000000	0.033152
670.000000	0.033141
669.000000	0.033075
668.000000	0.033121
667.000000	0.033240
666.000000	0.033234
665.000000	0.033145
664.000000	0.033185
663.000000	0.033245
662.000000	0.033182
661.000000	0.033172
660.000000	0.033219
659.000000	0.033192
658.000000	0.033136
657.000000	0.033099
656.000000	0.033127
655.000000	0.033073
654.000000	0.033032
653.000000	0.033060
652.000000	0.033094
651.000000	0.033031
650.000000	0.033017
649.000000	0.033098
648.000000	0.033135
647.000000	0.033079
646.000000	0.033070
645.000000	0.033179
644.000000	0.033168
643.000000	0.033141
642.000000	0.033200
641.000000	0.033275
640.000000	0.033183
639.000000	0.033186
638.000000	0.033186
637.000000	0.033206
636.000000	0.033193
635.000000	0.033211
634.000000	0.033248
633.000000	0.033202
632.000000	0.033167
631.000000	0.033263
630.000000	0.033335
629.000000	0.033169
628.000000	0.033202
627.000000	0.033339
626.000000	0.033309
625.000000	0.033277
624.000000	0.033318
623.000000	0.033329
622.000000	0.033377
621.000000	0.033328
620.000000	0.033402
619.000000	0.033358
618.000000	0.033395
617.000000	0.033416
616.000000	0.033474
615.000000	0.033524
614.000000	0.033483
613.000000	0.033525
612.000000	0.033626
611.000000	0.033630
610.000000	0.033644
609.000000	0.033704
608.000000	0.033780
607.000000	0.033716
606.000000	0.033740
605.000000	0.033855
604.000000	0.033735
603.000000	0.033773
602.000000	0.033887
601.000000	0.033905
600.000000	0.033946
599.000000	0.033844
598.000000	0.033832
597.000000	0.033862
596.000000	0.033789
595.000000	0.033810
594.000000	0.033880
593.000000	0.033886
592.000000	0.033854
591.000000	0.033775
590.000000	0.033989
589.000000	0.033862
588.000000	0.033954
587.000000	0.033920
586.000000	0.033926
585.000000	0.033920
584.000000	0.033912
583.000000	0.034030
582.000000	0.033962
581.000000	0.033942
580.000000	0.034012
579.000000	0.034006
578.000000	0.033986
577.000000	0.033962
576.000000	0.034027
575.000000	0.034051
574.000000	0.033993
573.000000	0.033963
572.000000	0.034081
571.000000	0.033998
570.000000	0.033973
569.000000	0.034064
568.000000	0.033978
567.000000	0.033956
566.000000	0.033960
565.000000	0.034074
564.000000	0.034065
563.000000	0.033960
562.000000	0.034034
561.000000	0.034012
560.000000	0.033984
559.000000	0.034032
558.000000	0.034075
557.000000	0.034083
556.000000	0.034086
555.000000	0.034046
554.000000	0.034041
553.000000	0.034061
552.000000	0.034063
551.000000	0.034102
550.000000	0.034070
549.000000	0.033958
548.000000	0.034007
547.000000	0.034080
546.000000	0.034022
545.000000	0.033990
544.000000	0.034023
543.000000	0.034015
542.000000	0.033985
541.000000	0.034009
540.000000	0.034119
539.000000	0.034086
538.000000	0.034043
537.000000	0.034122
536.000000	0.034209
535.000000	0.034191
534.000000	0.034194
533.000000	0.034308
532.000000	0.034323
531.000000	0.034296
530.000000	0.034309
529.000000	0.034443
528.000000	0.034395
527.000000	0.034398
526.000000	0.034507
525.000000	0.034596
524.000000	0.034588
523.000000	0.034599
522.000000	0.034641
521.000000	0.034688
520.000000	0.034716
519.000000	0.034781
518.000000	0.034874
517.000000	0.034949
516.000000	0.034965
515.000000	0.035040
514.000000	0.035116
513.000000	0.035122
512.000000	0.035108
511.000000	0.035211
510.000000	0.035248
509.000000	0.035233
508.000000	0.035314
507.000000	0.035418
506.000000	0.035418
505.000000	0.035427
504.000000	0.035485
503.000000	0.035562
502.000000	0.035581
501.000000	0.035548
500.000000	0.035584
499.000000	0.035656
498.000000	0.035651
497.000000	0.035714
496.000000	0.035784
495.000000	0.035751
494.000000	0.035727
493.000000	0.035867
492.000000	0.035915
491.000000	0.035860
490.000000	0.035887
489.000000	0.035949
488.000000	0.035985
487.000000	0.035980
486.000000	0.036081
485.000000	0.036157
484.000000	0.036136
483.000000	0.036160
482.000000	0.036214
481.000000	0.036277
480.000000	0.036249
479.000000	0.036235
478.000000	0.036274
477.000000	0.036253
476.000000	0.036304
475.000000	0.036358
474.000000	0.036493
473.000000	0.036464
472.000000	0.036527
471.000000	0.036643
470.000000	0.036640
469.000000	0.036703
468.000000	0.036793
467.000000	0.036928
466.000000	0.036945
465.000000	0.036932
464.000000	0.037056
463.000000	0.037202
462.000000	0.037174
461.000000	0.037273
460.000000	0.037456
459.000000	0.037489
458.000000	0.037544
457.000000	0.037685
456.000000	0.037748
455.000000	0.037847
454.000000	0.037947
453.000000	0.038033
452.000000	0.038151
451.000000	0.038245
450.000000	0.038333
449.000000	0.038457
448.000000	0.038548
447.000000	0.038652
446.000000	0.038809
445.000000	0.038974
444.000000	0.039064
443.000000	0.039189
442.000000	0.039372
441.000000	0.039421
440.000000	0.039609
439.000000	0.039772
438.000000	0.039888
437.000000	0.040032
436.000000	0.040235
435.000000	0.040323
434.000000	0.040458
433.000000	0.040621
432.000000	0.040739
431.000000	0.040961
430.000000	0.041087
429.000000	0.041192
428.000000	0.041408
427.000000	0.041688
426.000000	0.041822
425.000000	0.041772
424.000000	0.042169
423.000000	0.042290
422.000000	0.042461
421.000000	0.042611
420.000000	0.042898
419.000000	0.043046
418.000000	0.043218
417.000000	0.043411
416.000000	0.043600
415.000000	0.043579
414.000000	0.043771
413.000000	0.044033
412.000000	0.044127
411.000000	0.044277
410.000000	0.044740
409.000000	0.044848
408.000000	0.044973
407.000000	0.044954
406.000000	0.045296
405.000000	0.045651
404.000000	0.045667
403.000000	0.045821
402.000000	0.046152
401.000000	0.046288
400.000000	0.046510
399.000000	0.046647
398.000000	0.047041
397.000000	0.047163
396.000000	0.047306
395.000000	0.047570
394.000000	0.047817
393.000000	0.047933
392.000000	0.048230
391.000000	0.048512
390.000000	0.048712
389.000000	0.048905
388.000000	0.049126
387.000000	0.049357
386.000000	0.049770
385.000000	0.049926
384.000000	0.050203
383.000000	0.050482
382.000000	0.050624
381.000000	0.050889
380.000000	0.051590
379.000000	0.051681
378.000000	0.051916
377.000000	0.052169
376.000000	0.052484
375.000000	0.052843
374.000000	0.053195
373.000000	0.053668
372.000000	0.053906
371.000000	0.054240
370.000000	0.054629
369.000000	0.055078
368.000000	0.055443
367.000000	0.055799
366.000000	0.056171
365.000000	0.056644
364.000000	0.057021
363.000000	0.057467
362.000000	0.057865
361.000000	0.058320
360.000000	0.058708
359.000000	0.059182
358.000000	0.059704
357.000000	0.060213
356.000000	0.060654
355.000000	0.061122
354.000000	0.061681
353.000000	0.062042
352.000000	0.062618
351.000000	0.063211
350.000000	0.063751
349.000000	0.064228
348.000000	0.064732
347.000000	0.065333
346.000000	0.065904
345.000000	0.066446
344.000000	0.067085
343.000000	0.067678
342.000000	0.068238
341.000000	0.068764
340.000000	0.069460
339.000000	0.070089
338.000000	0.070722
337.000000	0.071405
336.000000	0.072133
335.000000	0.072624
334.000000	0.073413
333.000000	0.074161
332.000000	0.074897
331.000000	0.075556
330.000000	0.076372
329.000000	0.077226
328.000000	0.077858
327.000000	0.078557
326.000000	0.079543
325.000000	0.080312
324.000000	0.081150
323.000000	0.081925
322.000000	0.082851
321.000000	0.083671
320.000000	0.084554
319.000000	0.085552
318.000000	0.085619
317.000000	0.084626
316.000000	0.085570
315.000000	0.086521
314.000000	0.087526
313.000000	0.088623
312.000000	0.089682
311.000000	0.090747
310.000000	0.091889
309.000000	0.093077
308.000000	0.094382
307.000000	0.095457
306.000000	0.096595
305.000000	0.097845
304.000000	0.099132
303.000000	0.100438
302.000000	0.101757
301.000000	0.103093
300.000000	0.104505
299.000000	0.105861
298.000000	0.107351
297.000000	0.108887
296.000000	0.110460
295.000000	0.112035
294.000000	0.113720
293.000000	0.115349
292.000000	0.116953
291.000000	0.118749
290.000000	0.120498
289.000000	0.122279
288.000000	0.124129
287.000000	0.125914
286.000000	0.127706
285.000000	0.129674
284.000000	0.131634
283.000000	0.133532
282.000000	0.135452
281.000000	0.137373
280.000000	0.139332
279.000000	0.141280
278.000000	0.143263
277.000000	0.145253
276.000000	0.147313
275.000000	0.149330
274.000000	0.151383
273.000000	0.153524
272.000000	0.155564
271.000000	0.157522
270.000000	0.159498
269.000000	0.161450
268.000000	0.163366
267.000000	0.165228
266.000000	0.167077
265.000000	0.168867
264.000000	0.170578
263.000000	0.172260
262.000000	0.174055
261.000000	0.175728
260.000000	0.177135
259.000000	0.178574
258.000000	0.180100
257.000000	0.181543
256.000000	0.182877
255.000000	0.184192
254.000000	0.185630
253.000000	0.186988
252.000000	0.188284
251.000000	0.189727
250.000000	0.191205
249.000000	0.192620
248.000000	0.194252
247.000000	0.195938
246.000000	0.197777
245.000000	0.199621
244.000000	0.201589
243.000000	0.203673
242.000000	0.205971
241.000000	0.208374
240.000000	0.210926
239.000000	0.213499
238.000000	0.216109
237.000000	0.219050
236.000000	0.222048
235.000000	0.225113
234.000000	0.228345
233.000000	0.231815
232.000000	0.235304
231.000000	0.238846
230.000000	0.242576
229.000000	0.246427
228.000000	0.250308
227.000000	0.254274
226.000000	0.258525
225.000000	0.263143
224.000000	0.267851
223.000000	0.273119
222.000000	0.278742
221.000000	0.284976
220.000000	0.291995
219.000000	0.299976
218.000000	0.309008
217.000000	0.319573
216.000000	0.331997
215.000000	0.346519
214.000000	0.363938
213.000000	0.384343
212.000000	0.408034
211.000000	0.436587
210.000000	0.470126
209.000000	0.509063
208.000000	0.554770
207.000000	0.608761
206.000000	0.672310
205.000000	0.748684
204.000000	0.841811
203.000000	0.956988
202.000000	1.103401
201.000000	1.292089
200.000000	1.540745
