PE UV       SUBTECH     SPECTRUM    ASCII       PEDS        4.00        
   -1
KI6-000.Sample.Raw.asc
11/10/21
10:18:27.00
11/10/21
10:18:27.00
Hermanni Kaartokallio

200.000000
1
Lambda 650
650N8121101
PerkinElmer UV WinLab 6.0.2.0723 / 1.61.00 Lambda 650

0
0
2
0
0
UV/VIS
1
1
1
uv/vis/nir detector
0
0
0
0
Fix
 
0
0.24
0
0
0
 
 
 
0
 
0
319.2
0
Front
100
 
 
 
0
0
0
 
0
 
 
 
0
 
 
0
0
0
0
0
 
 
 
 
0
0
#HDR
-1
-1
#GR
nm
A
1.0
0.0
800.000000
-1.000000
601
8
1.807437
0.039542
#DATA
800.000000	0.044343
799.000000	0.044340
798.000000	0.044531
797.000000	0.044694
796.000000	0.044909
795.000000	0.044811
794.000000	0.044817
793.000000	0.044663
792.000000	0.044771
791.000000	0.045017
790.000000	0.045106
789.000000	0.045210
788.000000	0.045173
787.000000	0.045348
786.000000	0.045499
785.000000	0.045606
784.000000	0.045634
783.000000	0.045711
782.000000	0.045768
781.000000	0.045809
780.000000	0.045654
779.000000	0.045930
778.000000	0.045969
777.000000	0.045903
776.000000	0.046032
775.000000	0.046153
774.000000	0.046159
773.000000	0.046239
772.000000	0.046268
771.000000	0.046391
770.000000	0.046481
769.000000	0.046575
768.000000	0.046519
767.000000	0.046538
766.000000	0.046593
765.000000	0.046680
764.000000	0.046753
763.000000	0.046835
762.000000	0.046800
761.000000	0.046886
760.000000	0.046976
759.000000	0.047002
758.000000	0.047063
757.000000	0.047124
756.000000	0.047127
755.000000	0.047228
754.000000	0.047254
753.000000	0.047285
752.000000	0.047313
751.000000	0.047318
750.000000	0.047342
749.000000	0.047433
748.000000	0.047458
747.000000	0.047454
746.000000	0.047463
745.000000	0.047433
744.000000	0.047399
743.000000	0.047481
742.000000	0.047559
741.000000	0.047494
740.000000	0.047416
739.000000	0.047329
738.000000	0.047249
737.000000	0.047126
736.000000	0.046926
735.000000	0.046685
734.000000	0.046333
733.000000	0.045886
732.000000	0.045374
731.000000	0.044969
730.000000	0.044556
729.000000	0.044064
728.000000	0.043658
727.000000	0.043342
726.000000	0.043079
725.000000	0.042880
724.000000	0.042714
723.000000	0.042461
722.000000	0.042282
721.000000	0.042083
720.000000	0.041871
719.000000	0.041643
718.000000	0.041471
717.000000	0.041303
716.000000	0.041188
715.000000	0.040982
714.000000	0.040831
713.000000	0.040821
712.000000	0.040661
711.000000	0.040492
710.000000	0.040413
709.000000	0.040321
708.000000	0.040219
707.000000	0.040139
706.000000	0.040011
705.000000	0.039969
704.000000	0.039959
703.000000	0.039841
702.000000	0.039766
701.000000	0.039725
700.000000	0.039666
699.000000	0.039682
698.000000	0.039680
697.000000	0.039595
696.000000	0.039565
695.000000	0.039601
694.000000	0.039643
693.000000	0.039650
692.000000	0.039678
691.000000	0.039660
690.000000	0.039568
689.000000	0.039542
688.000000	0.039542
687.000000	0.039600
686.000000	0.039636
685.000000	0.039629
684.000000	0.039653
683.000000	0.039611
682.000000	0.039602
681.000000	0.039683
680.000000	0.039757
679.000000	0.039756
678.000000	0.039840
677.000000	0.039911
676.000000	0.039901
675.000000	0.039851
674.000000	0.039956
673.000000	0.040060
672.000000	0.040060
671.000000	0.040122
670.000000	0.040218
669.000000	0.040264
668.000000	0.040362
667.000000	0.040479
666.000000	0.040525
665.000000	0.040527
664.000000	0.040552
663.000000	0.040687
662.000000	0.040764
661.000000	0.040802
660.000000	0.040864
659.000000	0.040930
658.000000	0.040909
657.000000	0.040975
656.000000	0.041064
655.000000	0.041083
654.000000	0.041156
653.000000	0.041238
652.000000	0.041277
651.000000	0.041331
650.000000	0.041379
649.000000	0.041504
648.000000	0.041584
647.000000	0.041625
646.000000	0.041695
645.000000	0.041870
644.000000	0.041957
643.000000	0.041955
642.000000	0.042078
641.000000	0.042194
640.000000	0.042258
639.000000	0.042296
638.000000	0.042336
637.000000	0.042478
636.000000	0.042512
635.000000	0.042637
634.000000	0.042688
633.000000	0.042780
632.000000	0.042789
631.000000	0.042907
630.000000	0.043069
629.000000	0.043065
628.000000	0.043072
627.000000	0.043272
626.000000	0.043394
625.000000	0.043406
624.000000	0.043493
623.000000	0.043625
622.000000	0.043789
621.000000	0.043848
620.000000	0.043944
619.000000	0.044071
618.000000	0.044161
617.000000	0.044294
616.000000	0.044369
615.000000	0.044548
614.000000	0.044574
613.000000	0.044695
612.000000	0.044902
611.000000	0.044977
610.000000	0.045070
609.000000	0.045200
608.000000	0.045285
607.000000	0.045450
606.000000	0.045557
605.000000	0.045698
604.000000	0.045729
603.000000	0.045894
602.000000	0.046089
601.000000	0.046267
600.000000	0.046319
599.000000	0.046376
598.000000	0.046417
597.000000	0.046650
596.000000	0.046632
595.000000	0.046733
594.000000	0.046833
593.000000	0.046941
592.000000	0.047129
591.000000	0.047102
590.000000	0.047356
589.000000	0.047440
588.000000	0.047583
587.000000	0.047675
586.000000	0.047917
585.000000	0.047932
584.000000	0.048141
583.000000	0.048270
582.000000	0.048361
581.000000	0.048488
580.000000	0.048615
579.000000	0.048702
578.000000	0.048893
577.000000	0.049078
576.000000	0.049168
575.000000	0.049345
574.000000	0.049462
573.000000	0.049522
572.000000	0.049748
571.000000	0.049852
570.000000	0.049914
569.000000	0.050082
568.000000	0.050270
567.000000	0.050403
566.000000	0.050493
565.000000	0.050690
564.000000	0.050879
563.000000	0.050952
562.000000	0.051187
561.000000	0.051236
560.000000	0.051381
559.000000	0.051581
558.000000	0.051766
557.000000	0.051942
556.000000	0.052143
555.000000	0.052254
554.000000	0.052449
553.000000	0.052624
552.000000	0.052755
551.000000	0.052921
550.000000	0.053124
549.000000	0.053202
548.000000	0.053325
547.000000	0.053586
546.000000	0.053739
545.000000	0.053950
544.000000	0.054150
543.000000	0.054320
542.000000	0.054480
541.000000	0.054704
540.000000	0.054921
539.000000	0.055127
538.000000	0.055345
537.000000	0.055560
536.000000	0.055738
535.000000	0.055990
534.000000	0.056219
533.000000	0.056459
532.000000	0.056717
531.000000	0.056896
530.000000	0.057113
529.000000	0.057436
528.000000	0.057715
527.000000	0.057985
526.000000	0.058222
525.000000	0.058463
524.000000	0.058735
523.000000	0.059004
522.000000	0.059317
521.000000	0.059560
520.000000	0.059815
519.000000	0.060133
518.000000	0.060424
517.000000	0.060723
516.000000	0.060984
515.000000	0.061316
514.000000	0.061634
513.000000	0.061887
512.000000	0.062192
511.000000	0.062558
510.000000	0.062849
509.000000	0.063091
508.000000	0.063401
507.000000	0.063766
506.000000	0.064060
505.000000	0.064350
504.000000	0.064668
503.000000	0.065016
502.000000	0.065357
501.000000	0.065593
500.000000	0.065890
499.000000	0.066309
498.000000	0.066648
497.000000	0.066974
496.000000	0.067266
495.000000	0.067524
494.000000	0.067830
493.000000	0.068275
492.000000	0.068672
491.000000	0.068971
490.000000	0.069347
489.000000	0.069724
488.000000	0.070093
487.000000	0.070463
486.000000	0.070899
485.000000	0.071319
484.000000	0.071695
483.000000	0.072074
482.000000	0.072443
481.000000	0.072891
480.000000	0.073256
479.000000	0.073646
478.000000	0.074075
477.000000	0.074456
476.000000	0.074921
475.000000	0.075357
474.000000	0.075898
473.000000	0.076298
472.000000	0.076813
471.000000	0.077385
470.000000	0.077863
469.000000	0.078377
468.000000	0.078901
467.000000	0.079468
466.000000	0.080057
465.000000	0.080496
464.000000	0.081100
463.000000	0.081735
462.000000	0.082220
461.000000	0.082860
460.000000	0.083537
459.000000	0.084117
458.000000	0.084699
457.000000	0.085379
456.000000	0.086048
455.000000	0.086771
454.000000	0.087482
453.000000	0.088166
452.000000	0.088893
451.000000	0.089647
450.000000	0.090331
449.000000	0.091123
448.000000	0.091896
447.000000	0.092658
446.000000	0.093508
445.000000	0.094351
444.000000	0.095244
443.000000	0.096156
442.000000	0.097001
441.000000	0.097817
440.000000	0.098816
439.000000	0.099782
438.000000	0.100749
437.000000	0.101723
436.000000	0.102728
435.000000	0.103665
434.000000	0.104754
433.000000	0.105789
432.000000	0.106917
431.000000	0.108031
430.000000	0.109125
429.000000	0.110154
428.000000	0.111326
427.000000	0.112599
426.000000	0.113856
425.000000	0.114828
424.000000	0.116249
423.000000	0.117453
422.000000	0.118892
421.000000	0.120160
420.000000	0.121492
419.000000	0.122914
418.000000	0.124301
417.000000	0.125678
416.000000	0.127144
415.000000	0.128420
414.000000	0.129916
413.000000	0.131434
412.000000	0.132899
411.000000	0.134397
410.000000	0.136267
409.000000	0.137849
408.000000	0.139492
407.000000	0.140927
406.000000	0.142746
405.000000	0.144628
404.000000	0.146336
403.000000	0.148076
402.000000	0.149933
401.000000	0.151785
400.000000	0.153701
399.000000	0.155584
398.000000	0.157725
397.000000	0.159702
396.000000	0.161758
395.000000	0.163925
394.000000	0.166024
393.000000	0.168036
392.000000	0.170442
391.000000	0.172646
390.000000	0.174960
389.000000	0.177316
388.000000	0.179664
387.000000	0.182126
386.000000	0.184762
385.000000	0.187161
384.000000	0.189756
383.000000	0.192354
382.000000	0.194991
381.000000	0.197676
380.000000	0.200856
379.000000	0.203601
378.000000	0.206334
377.000000	0.209311
376.000000	0.212457
375.000000	0.215549
374.000000	0.218484
373.000000	0.221657
372.000000	0.224908
371.000000	0.228128
370.000000	0.231593
369.000000	0.235036
368.000000	0.238389
367.000000	0.241933
366.000000	0.245325
365.000000	0.248915
364.000000	0.252588
363.000000	0.256332
362.000000	0.260056
361.000000	0.263840
360.000000	0.267700
359.000000	0.271598
358.000000	0.275625
357.000000	0.279587
356.000000	0.283585
355.000000	0.287609
354.000000	0.291785
353.000000	0.295836
352.000000	0.300196
351.000000	0.304485
350.000000	0.308817
349.000000	0.313139
348.000000	0.317456
347.000000	0.321894
346.000000	0.326507
345.000000	0.330956
344.000000	0.335392
343.000000	0.340070
342.000000	0.344785
341.000000	0.349182
340.000000	0.354100
339.000000	0.358965
338.000000	0.363539
337.000000	0.368323
336.000000	0.373239
335.000000	0.378095
334.000000	0.383126
333.000000	0.388189
332.000000	0.393287
331.000000	0.398438
330.000000	0.403567
329.000000	0.408807
328.000000	0.414040
327.000000	0.419313
326.000000	0.424743
325.000000	0.430140
324.000000	0.435695
323.000000	0.441126
322.000000	0.446846
321.000000	0.452472
320.000000	0.458187
319.000000	0.464009
318.000000	0.469293
317.000000	0.474024
316.000000	0.480041
315.000000	0.486134
314.000000	0.492266
313.000000	0.498523
312.000000	0.504953
311.000000	0.511394
310.000000	0.517767
309.000000	0.524284
308.000000	0.530930
307.000000	0.537520
306.000000	0.544209
305.000000	0.551086
304.000000	0.557995
303.000000	0.564987
302.000000	0.571992
301.000000	0.579054
300.000000	0.586242
299.000000	0.593320
298.000000	0.600426
297.000000	0.607751
296.000000	0.615097
295.000000	0.622386
294.000000	0.629833
293.000000	0.637358
292.000000	0.645111
291.000000	0.652963
290.000000	0.660806
289.000000	0.668749
288.000000	0.676702
287.000000	0.684788
286.000000	0.692871
285.000000	0.700957
284.000000	0.709160
283.000000	0.717414
282.000000	0.725672
281.000000	0.733825
280.000000	0.742066
279.000000	0.750337
278.000000	0.758531
277.000000	0.766823
276.000000	0.775339
275.000000	0.783857
274.000000	0.792369
273.000000	0.800998
272.000000	0.809616
271.000000	0.818094
270.000000	0.826506
269.000000	0.834811
268.000000	0.843069
267.000000	0.851333
266.000000	0.859439
265.000000	0.867491
264.000000	0.875348
263.000000	0.883002
262.000000	0.890653
261.000000	0.898166
260.000000	0.905403
259.000000	0.912602
258.000000	0.919803
257.000000	0.926886
256.000000	0.933896
255.000000	0.941117
254.000000	0.948620
253.000000	0.956079
252.000000	0.963688
251.000000	0.971637
250.000000	0.979962
249.000000	0.988541
248.000000	0.997863
247.000000	1.007803
246.000000	1.018057
245.000000	1.028900
244.000000	1.040446
243.000000	1.052592
242.000000	1.065313
241.000000	1.078522
240.000000	1.092169
239.000000	1.106191
238.000000	1.120655
237.000000	1.135429
236.000000	1.150837
235.000000	1.166638
234.000000	1.182884
233.000000	1.199269
232.000000	1.215923
231.000000	1.232701
230.000000	1.249569
229.000000	1.265944
228.000000	1.282743
227.000000	1.299328
226.000000	1.316013
225.000000	1.333326
224.000000	1.350482
223.000000	1.367694
222.000000	1.385631
221.000000	1.403685
220.000000	1.422168
219.000000	1.441410
218.000000	1.460745
217.000000	1.481155
216.000000	1.501503
215.000000	1.522609
214.000000	1.543961
213.000000	1.565527
212.000000	1.587102
211.000000	1.608150
210.000000	1.628671
209.000000	1.648710
208.000000	1.667845
207.000000	1.687156
206.000000	1.704843
205.000000	1.722223
204.000000	1.738960
203.000000	1.755732
202.000000	1.773040
201.000000	1.789061
200.000000	1.807437
