PE UV       SUBTECH     SPECTRUM    ASCII       PEDS        4.00        
   -1
KI6-XXB.Sample.Raw.asc
11/10/21
10:37:26.00
11/10/21
10:37:26.00
Hermanni Kaartokallio

200.000000
1
Lambda 650
650N8121101
PerkinElmer UV WinLab 6.0.2.0723 / 1.61.00 Lambda 650

0
0
2
0
0
UV/VIS
1
1
1
uv/vis/nir detector
0
0
0
0
Fix
 
0
0.24
0
0
0
 
 
 
0
 
0
319.2
0
Front
100
 
 
 
0
0
0
 
0
 
 
 
0
 
 
0
0
0
0
0
 
 
 
 
0
0
#HDR
-1
-1
#GR
nm
A
1.0
0.0
800.000000
-1.000000
601
8
1.437143
0.033097
#DATA
800.000000	0.041050
799.000000	0.041053
798.000000	0.041356
797.000000	0.041297
796.000000	0.041373
795.000000	0.041515
794.000000	0.041738
793.000000	0.041520
792.000000	0.041560
791.000000	0.041688
790.000000	0.041938
789.000000	0.041945
788.000000	0.041884
787.000000	0.042073
786.000000	0.042127
785.000000	0.042141
784.000000	0.042231
783.000000	0.042392
782.000000	0.042583
781.000000	0.042440
780.000000	0.042436
779.000000	0.042493
778.000000	0.042537
777.000000	0.042511
776.000000	0.042649
775.000000	0.042693
774.000000	0.042661
773.000000	0.042698
772.000000	0.042807
771.000000	0.042740
770.000000	0.042739
769.000000	0.042916
768.000000	0.042884
767.000000	0.042812
766.000000	0.042831
765.000000	0.042860
764.000000	0.042977
763.000000	0.042969
762.000000	0.042957
761.000000	0.043152
760.000000	0.043147
759.000000	0.043125
758.000000	0.043166
757.000000	0.043187
756.000000	0.043023
755.000000	0.043154
754.000000	0.043291
753.000000	0.043249
752.000000	0.043176
751.000000	0.043269
750.000000	0.043363
749.000000	0.043211
748.000000	0.043174
747.000000	0.043273
746.000000	0.043352
745.000000	0.043207
744.000000	0.043084
743.000000	0.043201
742.000000	0.043204
741.000000	0.043038
740.000000	0.043031
739.000000	0.042951
738.000000	0.042788
737.000000	0.042543
736.000000	0.042391
735.000000	0.042076
734.000000	0.041586
733.000000	0.041204
732.000000	0.040757
731.000000	0.040207
730.000000	0.039729
729.000000	0.039222
728.000000	0.038809
727.000000	0.038407
726.000000	0.038122
725.000000	0.037964
724.000000	0.037677
723.000000	0.037369
722.000000	0.037162
721.000000	0.036960
720.000000	0.036679
719.000000	0.036457
718.000000	0.036313
717.000000	0.036133
716.000000	0.035870
715.000000	0.035664
714.000000	0.035555
713.000000	0.035427
712.000000	0.035216
711.000000	0.035051
710.000000	0.034964
709.000000	0.034828
708.000000	0.034634
707.000000	0.034509
706.000000	0.034394
705.000000	0.034230
704.000000	0.034126
703.000000	0.034034
702.000000	0.033902
701.000000	0.033789
700.000000	0.033786
699.000000	0.033835
698.000000	0.033712
697.000000	0.033580
696.000000	0.033632
695.000000	0.033578
694.000000	0.033466
693.000000	0.033466
692.000000	0.033470
691.000000	0.033364
690.000000	0.033294
689.000000	0.033357
688.000000	0.033270
687.000000	0.033185
686.000000	0.033242
685.000000	0.033263
684.000000	0.033208
683.000000	0.033178
682.000000	0.033178
681.000000	0.033158
680.000000	0.033162
679.000000	0.033174
678.000000	0.033200
677.000000	0.033206
676.000000	0.033141
675.000000	0.033097
674.000000	0.033174
673.000000	0.033191
672.000000	0.033160
671.000000	0.033186
670.000000	0.033217
669.000000	0.033188
668.000000	0.033242
667.000000	0.033356
666.000000	0.033297
665.000000	0.033274
664.000000	0.033339
663.000000	0.033388
662.000000	0.033368
661.000000	0.033390
660.000000	0.033391
659.000000	0.033339
658.000000	0.033256
657.000000	0.033246
656.000000	0.033298
655.000000	0.033242
654.000000	0.033200
653.000000	0.033317
652.000000	0.033277
651.000000	0.033260
650.000000	0.033273
649.000000	0.033331
648.000000	0.033288
647.000000	0.033258
646.000000	0.033327
645.000000	0.033390
644.000000	0.033353
643.000000	0.033334
642.000000	0.033463
641.000000	0.033461
640.000000	0.033383
639.000000	0.033375
638.000000	0.033444
637.000000	0.033398
636.000000	0.033389
635.000000	0.033505
634.000000	0.033470
633.000000	0.033423
632.000000	0.033407
631.000000	0.033495
630.000000	0.033507
629.000000	0.033384
628.000000	0.033445
627.000000	0.033547
626.000000	0.033492
625.000000	0.033461
624.000000	0.033519
623.000000	0.033576
622.000000	0.033584
621.000000	0.033618
620.000000	0.033700
619.000000	0.033726
618.000000	0.033661
617.000000	0.033746
616.000000	0.033808
615.000000	0.033769
614.000000	0.033755
613.000000	0.033864
612.000000	0.033951
611.000000	0.033875
610.000000	0.033885
609.000000	0.034002
608.000000	0.034022
607.000000	0.033999
606.000000	0.034081
605.000000	0.034158
604.000000	0.034050
603.000000	0.034061
602.000000	0.034213
601.000000	0.034283
600.000000	0.034178
599.000000	0.034197
598.000000	0.034277
597.000000	0.034183
596.000000	0.034156
595.000000	0.034201
594.000000	0.034246
593.000000	0.034198
592.000000	0.034263
591.000000	0.034244
590.000000	0.034306
589.000000	0.034226
588.000000	0.034331
587.000000	0.034349
586.000000	0.034376
585.000000	0.034307
584.000000	0.034439
583.000000	0.034520
582.000000	0.034421
581.000000	0.034439
580.000000	0.034481
579.000000	0.034436
578.000000	0.034428
577.000000	0.034429
576.000000	0.034538
575.000000	0.034489
574.000000	0.034454
573.000000	0.034522
572.000000	0.034636
571.000000	0.034510
570.000000	0.034462
569.000000	0.034644
568.000000	0.034569
567.000000	0.034541
566.000000	0.034549
565.000000	0.034668
564.000000	0.034620
563.000000	0.034569
562.000000	0.034695
561.000000	0.034585
560.000000	0.034535
559.000000	0.034710
558.000000	0.034694
557.000000	0.034650
556.000000	0.034691
555.000000	0.034708
554.000000	0.034711
553.000000	0.034708
552.000000	0.034779
551.000000	0.034801
550.000000	0.034772
549.000000	0.034611
548.000000	0.034707
547.000000	0.034737
546.000000	0.034667
545.000000	0.034751
544.000000	0.034792
543.000000	0.034707
542.000000	0.034697
541.000000	0.034767
540.000000	0.034876
539.000000	0.034823
538.000000	0.034851
537.000000	0.034928
536.000000	0.034959
535.000000	0.034933
534.000000	0.035017
533.000000	0.035123
532.000000	0.035120
531.000000	0.035066
530.000000	0.035133
529.000000	0.035254
528.000000	0.035238
527.000000	0.035323
526.000000	0.035439
525.000000	0.035459
524.000000	0.035420
523.000000	0.035452
522.000000	0.035617
521.000000	0.035681
520.000000	0.035675
519.000000	0.035751
518.000000	0.035875
517.000000	0.035960
516.000000	0.035977
515.000000	0.036091
514.000000	0.036123
513.000000	0.036129
512.000000	0.036201
511.000000	0.036287
510.000000	0.036290
509.000000	0.036353
508.000000	0.036482
507.000000	0.036501
506.000000	0.036509
505.000000	0.036588
504.000000	0.036692
503.000000	0.036719
502.000000	0.036711
501.000000	0.036737
500.000000	0.036814
499.000000	0.036852
498.000000	0.036913
497.000000	0.037048
496.000000	0.037080
495.000000	0.036997
494.000000	0.037037
493.000000	0.037200
492.000000	0.037214
491.000000	0.037218
490.000000	0.037339
489.000000	0.037371
488.000000	0.037343
487.000000	0.037425
486.000000	0.037586
485.000000	0.037609
484.000000	0.037595
483.000000	0.037647
482.000000	0.037687
481.000000	0.037751
480.000000	0.037784
479.000000	0.037864
478.000000	0.037898
477.000000	0.037835
476.000000	0.037937
475.000000	0.038043
474.000000	0.038161
473.000000	0.038141
472.000000	0.038242
471.000000	0.038404
470.000000	0.038449
469.000000	0.038547
468.000000	0.038701
467.000000	0.038801
466.000000	0.038827
465.000000	0.038877
464.000000	0.039085
463.000000	0.039212
462.000000	0.039166
461.000000	0.039349
460.000000	0.039561
459.000000	0.039526
458.000000	0.039641
457.000000	0.039899
456.000000	0.040001
455.000000	0.040077
454.000000	0.040269
453.000000	0.040424
452.000000	0.040558
451.000000	0.040646
450.000000	0.040783
449.000000	0.040959
448.000000	0.041063
447.000000	0.041186
446.000000	0.041488
445.000000	0.041646
444.000000	0.041725
443.000000	0.041974
442.000000	0.042192
441.000000	0.042181
440.000000	0.042434
439.000000	0.042657
438.000000	0.042939
437.000000	0.043061
436.000000	0.043243
435.000000	0.043488
434.000000	0.043670
433.000000	0.043829
432.000000	0.044129
431.000000	0.044395
430.000000	0.044500
429.000000	0.044628
428.000000	0.044965
427.000000	0.045250
426.000000	0.045417
425.000000	0.045476
424.000000	0.045945
423.000000	0.046099
422.000000	0.046333
421.000000	0.046633
420.000000	0.046977
419.000000	0.047097
418.000000	0.047349
417.000000	0.047740
416.000000	0.047992
415.000000	0.048016
414.000000	0.048310
413.000000	0.048626
412.000000	0.048705
411.000000	0.048902
410.000000	0.049533
409.000000	0.049663
408.000000	0.049882
407.000000	0.049981
406.000000	0.050451
405.000000	0.050766
404.000000	0.050877
403.000000	0.051215
402.000000	0.051610
401.000000	0.051920
400.000000	0.052171
399.000000	0.052449
398.000000	0.052893
397.000000	0.053079
396.000000	0.053362
395.000000	0.053759
394.000000	0.054082
393.000000	0.054218
392.000000	0.054773
391.000000	0.055186
390.000000	0.055394
389.000000	0.055757
388.000000	0.056095
387.000000	0.056472
386.000000	0.056917
385.000000	0.057225
384.000000	0.057665
383.000000	0.058184
382.000000	0.058412
381.000000	0.058770
380.000000	0.059598
379.000000	0.059812
378.000000	0.060066
377.000000	0.060599
376.000000	0.061187
375.000000	0.061688
374.000000	0.062209
373.000000	0.062681
372.000000	0.063102
371.000000	0.063581
370.000000	0.064260
369.000000	0.064896
368.000000	0.065287
367.000000	0.065934
366.000000	0.066468
365.000000	0.067057
364.000000	0.067563
363.000000	0.068322
362.000000	0.069004
361.000000	0.069377
360.000000	0.070044
359.000000	0.070828
358.000000	0.071497
357.000000	0.072125
356.000000	0.072804
355.000000	0.073587
354.000000	0.074247
353.000000	0.074772
352.000000	0.075602
351.000000	0.076374
350.000000	0.077044
349.000000	0.077860
348.000000	0.078676
347.000000	0.079422
346.000000	0.080073
345.000000	0.081029
344.000000	0.081812
343.000000	0.082606
342.000000	0.083471
341.000000	0.084257
340.000000	0.085158
339.000000	0.086026
338.000000	0.086930
337.000000	0.087923
336.000000	0.088752
335.000000	0.089512
334.000000	0.090530
333.000000	0.091540
332.000000	0.092461
331.000000	0.093403
330.000000	0.094558
329.000000	0.095684
328.000000	0.096553
327.000000	0.097569
326.000000	0.098733
325.000000	0.099707
324.000000	0.100854
323.000000	0.102033
322.000000	0.103250
321.000000	0.104334
320.000000	0.105488
319.000000	0.106846
318.000000	0.107211
317.000000	0.106537
316.000000	0.107734
315.000000	0.108999
314.000000	0.110362
313.000000	0.111796
312.000000	0.113181
311.000000	0.114606
310.000000	0.116089
309.000000	0.117590
308.000000	0.119042
307.000000	0.120545
306.000000	0.122160
305.000000	0.123640
304.000000	0.125156
303.000000	0.126911
302.000000	0.128745
301.000000	0.130381
300.000000	0.132064
299.000000	0.133830
298.000000	0.135615
297.000000	0.137461
296.000000	0.139448
295.000000	0.141518
294.000000	0.143498
293.000000	0.145431
292.000000	0.147563
291.000000	0.149848
290.000000	0.151980
289.000000	0.154115
288.000000	0.156369
287.000000	0.158608
286.000000	0.160762
285.000000	0.163065
284.000000	0.165453
283.000000	0.167820
282.000000	0.170190
281.000000	0.172634
280.000000	0.175111
279.000000	0.177384
278.000000	0.179712
277.000000	0.182221
276.000000	0.184722
275.000000	0.187086
274.000000	0.189573
273.000000	0.192168
272.000000	0.194620
271.000000	0.197012
270.000000	0.199417
269.000000	0.201759
268.000000	0.204043
267.000000	0.206311
266.000000	0.208610
265.000000	0.210799
264.000000	0.212842
263.000000	0.214934
262.000000	0.217076
261.000000	0.219062
260.000000	0.220803
259.000000	0.222584
258.000000	0.224431
257.000000	0.226095
256.000000	0.227801
255.000000	0.229633
254.000000	0.231410
253.000000	0.233007
252.000000	0.234730
251.000000	0.236495
250.000000	0.238279
249.000000	0.240025
248.000000	0.242152
247.000000	0.244330
246.000000	0.246537
245.000000	0.248858
244.000000	0.251344
243.000000	0.253999
242.000000	0.256792
241.000000	0.259918
240.000000	0.263076
239.000000	0.266080
238.000000	0.269452
237.000000	0.273193
236.000000	0.276889
235.000000	0.280662
234.000000	0.284723
233.000000	0.288997
232.000000	0.293242
231.000000	0.297622
230.000000	0.302190
229.000000	0.306930
228.000000	0.311628
227.000000	0.316422
226.000000	0.321598
225.000000	0.327054
224.000000	0.332603
223.000000	0.338616
222.000000	0.345147
221.000000	0.352013
220.000000	0.359604
219.000000	0.368165
218.000000	0.377611
217.000000	0.388330
216.000000	0.400308
215.000000	0.414437
214.000000	0.430928
213.000000	0.450060
212.000000	0.472267
211.000000	0.498098
210.000000	0.527840
209.000000	0.562236
208.000000	0.602248
207.000000	0.649017
206.000000	0.703582
205.000000	0.768527
204.000000	0.847558
203.000000	0.944966
202.000000	1.067570
201.000000	1.226816
200.000000	1.437143
