PE UV       SUBTECH     SPECTRUM    ASCII       PEDS        4.00        
   -1
KI6-01B.Sample.Raw.asc
11/10/21
10:27:08.00
11/10/21
10:27:08.00
Hermanni Kaartokallio

200.000000
1
Lambda 650
650N8121101
PerkinElmer UV WinLab 6.0.2.0723 / 1.61.00 Lambda 650

0
0
2
0
0
UV/VIS
1
1
1
uv/vis/nir detector
0
0
0
0
Fix
 
0
0.24
0
0
0
 
 
 
0
 
0
319.2
0
Front
100
 
 
 
0
0
0
 
0
 
 
 
0
 
 
0
0
0
0
0
 
 
 
 
0
0
#HDR
-1
-1
#GR
nm
A
1.0
0.0
800.000000
-1.000000
601
8
1.577104
0.034202
#DATA
800.000000	0.041302
799.000000	0.041318
798.000000	0.041437
797.000000	0.041493
796.000000	0.041543
795.000000	0.041673
794.000000	0.041900
793.000000	0.041628
792.000000	0.041649
791.000000	0.041937
790.000000	0.042197
789.000000	0.042128
788.000000	0.042150
787.000000	0.042303
786.000000	0.042373
785.000000	0.042415
784.000000	0.042517
783.000000	0.042631
782.000000	0.042704
781.000000	0.042760
780.000000	0.042739
779.000000	0.042837
778.000000	0.042823
777.000000	0.042897
776.000000	0.042949
775.000000	0.042929
774.000000	0.042871
773.000000	0.043064
772.000000	0.043085
771.000000	0.042992
770.000000	0.042982
769.000000	0.043205
768.000000	0.043186
767.000000	0.043102
766.000000	0.043152
765.000000	0.043318
764.000000	0.043321
763.000000	0.043326
762.000000	0.043319
761.000000	0.043444
760.000000	0.043423
759.000000	0.043400
758.000000	0.043495
757.000000	0.043594
756.000000	0.043425
755.000000	0.043514
754.000000	0.043651
753.000000	0.043620
752.000000	0.043577
751.000000	0.043739
750.000000	0.043736
749.000000	0.043614
748.000000	0.043611
747.000000	0.043663
746.000000	0.043707
745.000000	0.043582
744.000000	0.043567
743.000000	0.043713
742.000000	0.043695
741.000000	0.043597
740.000000	0.043580
739.000000	0.043479
738.000000	0.043356
737.000000	0.043177
736.000000	0.043030
735.000000	0.042643
734.000000	0.042220
733.000000	0.041830
732.000000	0.041374
731.000000	0.040846
730.000000	0.040363
729.000000	0.039986
728.000000	0.039544
727.000000	0.039042
726.000000	0.038766
725.000000	0.038609
724.000000	0.038345
723.000000	0.038014
722.000000	0.037902
721.000000	0.037714
720.000000	0.037406
719.000000	0.037191
718.000000	0.037082
717.000000	0.036846
716.000000	0.036620
715.000000	0.036482
714.000000	0.036369
713.000000	0.036201
712.000000	0.036020
711.000000	0.035921
710.000000	0.035778
709.000000	0.035580
708.000000	0.035493
707.000000	0.035427
706.000000	0.035238
705.000000	0.035070
704.000000	0.035047
703.000000	0.034919
702.000000	0.034733
701.000000	0.034694
700.000000	0.034706
699.000000	0.034696
698.000000	0.034588
697.000000	0.034493
696.000000	0.034514
695.000000	0.034461
694.000000	0.034386
693.000000	0.034407
692.000000	0.034415
691.000000	0.034316
690.000000	0.034235
689.000000	0.034294
688.000000	0.034228
687.000000	0.034202
686.000000	0.034257
685.000000	0.034262
684.000000	0.034240
683.000000	0.034234
682.000000	0.034263
681.000000	0.034263
680.000000	0.034265
679.000000	0.034293
678.000000	0.034337
677.000000	0.034312
676.000000	0.034279
675.000000	0.034277
674.000000	0.034340
673.000000	0.034391
672.000000	0.034371
671.000000	0.034434
670.000000	0.034472
669.000000	0.034477
668.000000	0.034551
667.000000	0.034641
666.000000	0.034567
665.000000	0.034597
664.000000	0.034632
663.000000	0.034648
662.000000	0.034670
661.000000	0.034896
660.000000	0.034881
659.000000	0.034733
658.000000	0.034719
657.000000	0.034793
656.000000	0.034804
655.000000	0.034737
654.000000	0.034780
653.000000	0.034821
652.000000	0.034768
651.000000	0.034820
650.000000	0.034867
649.000000	0.034985
648.000000	0.034982
647.000000	0.034959
646.000000	0.035000
645.000000	0.035106
644.000000	0.035072
643.000000	0.035082
642.000000	0.035245
641.000000	0.035258
640.000000	0.035193
639.000000	0.035247
638.000000	0.035294
637.000000	0.035329
636.000000	0.035306
635.000000	0.035395
634.000000	0.035363
633.000000	0.035393
632.000000	0.035453
631.000000	0.035510
630.000000	0.035564
629.000000	0.035468
628.000000	0.035530
627.000000	0.035631
626.000000	0.035623
625.000000	0.035622
624.000000	0.035701
623.000000	0.035791
622.000000	0.035841
621.000000	0.035849
620.000000	0.035928
619.000000	0.035915
618.000000	0.035991
617.000000	0.036157
616.000000	0.036213
615.000000	0.036195
614.000000	0.036181
613.000000	0.036256
612.000000	0.036393
611.000000	0.036434
610.000000	0.036477
609.000000	0.036584
608.000000	0.036637
607.000000	0.036661
606.000000	0.036787
605.000000	0.036890
604.000000	0.036734
603.000000	0.036942
602.000000	0.037060
601.000000	0.037068
600.000000	0.037034
599.000000	0.037128
598.000000	0.037173
597.000000	0.037186
596.000000	0.037164
595.000000	0.037279
594.000000	0.037389
593.000000	0.037340
592.000000	0.037500
591.000000	0.037411
590.000000	0.037569
589.000000	0.037447
588.000000	0.037645
587.000000	0.037703
586.000000	0.037768
585.000000	0.037698
584.000000	0.037972
583.000000	0.037978
582.000000	0.037953
581.000000	0.038016
580.000000	0.038141
579.000000	0.038101
578.000000	0.038228
577.000000	0.038310
576.000000	0.038347
575.000000	0.038385
574.000000	0.038372
573.000000	0.038464
572.000000	0.038613
571.000000	0.038614
570.000000	0.038605
569.000000	0.038742
568.000000	0.038658
567.000000	0.038686
566.000000	0.038842
565.000000	0.038999
564.000000	0.038947
563.000000	0.039011
562.000000	0.039237
561.000000	0.039094
560.000000	0.039172
559.000000	0.039333
558.000000	0.039311
557.000000	0.039385
556.000000	0.039517
555.000000	0.039559
554.000000	0.039593
553.000000	0.039679
552.000000	0.039787
551.000000	0.039817
550.000000	0.039809
549.000000	0.039812
548.000000	0.039918
547.000000	0.039960
546.000000	0.040013
545.000000	0.040083
544.000000	0.040239
543.000000	0.040228
542.000000	0.040279
541.000000	0.040483
540.000000	0.040568
539.000000	0.040587
538.000000	0.040661
537.000000	0.040813
536.000000	0.040882
535.000000	0.040998
534.000000	0.041134
533.000000	0.041225
532.000000	0.041355
531.000000	0.041407
530.000000	0.041550
529.000000	0.041700
528.000000	0.041741
527.000000	0.041897
526.000000	0.042095
525.000000	0.042154
524.000000	0.042195
523.000000	0.042378
522.000000	0.042577
521.000000	0.042645
520.000000	0.042763
519.000000	0.042931
518.000000	0.043060
517.000000	0.043205
516.000000	0.043366
515.000000	0.043542
514.000000	0.043658
513.000000	0.043775
512.000000	0.043960
511.000000	0.044159
510.000000	0.044213
509.000000	0.044311
508.000000	0.044563
507.000000	0.044712
506.000000	0.044789
505.000000	0.045006
504.000000	0.045208
503.000000	0.045304
502.000000	0.045423
501.000000	0.045535
500.000000	0.045653
499.000000	0.045843
498.000000	0.046046
497.000000	0.046264
496.000000	0.046349
495.000000	0.046398
494.000000	0.046600
493.000000	0.046878
492.000000	0.047011
491.000000	0.047123
490.000000	0.047353
489.000000	0.047487
488.000000	0.047551
487.000000	0.047727
486.000000	0.048010
485.000000	0.048182
484.000000	0.048286
483.000000	0.048483
482.000000	0.048692
481.000000	0.048883
480.000000	0.049075
479.000000	0.049313
478.000000	0.049424
477.000000	0.049508
476.000000	0.049833
475.000000	0.050061
474.000000	0.050343
473.000000	0.050516
472.000000	0.050805
471.000000	0.051064
470.000000	0.051210
469.000000	0.051523
468.000000	0.051858
467.000000	0.052105
466.000000	0.052285
465.000000	0.052501
464.000000	0.052846
463.000000	0.053115
462.000000	0.053364
461.000000	0.053764
460.000000	0.054075
459.000000	0.054278
458.000000	0.054621
457.000000	0.055071
456.000000	0.055343
455.000000	0.055634
454.000000	0.056068
453.000000	0.056455
452.000000	0.056775
451.000000	0.057155
450.000000	0.057535
449.000000	0.057962
448.000000	0.058266
447.000000	0.058650
446.000000	0.059162
445.000000	0.059538
444.000000	0.059930
443.000000	0.060495
442.000000	0.060940
441.000000	0.061188
440.000000	0.061774
439.000000	0.062339
438.000000	0.062813
437.000000	0.063227
436.000000	0.063803
435.000000	0.064271
434.000000	0.064746
433.000000	0.065303
432.000000	0.065950
431.000000	0.066519
430.000000	0.066944
429.000000	0.067448
428.000000	0.068170
427.000000	0.068752
426.000000	0.069340
425.000000	0.069883
424.000000	0.070740
423.000000	0.071208
422.000000	0.071770
421.000000	0.072530
420.000000	0.073213
419.000000	0.073815
418.000000	0.074472
417.000000	0.075276
416.000000	0.075915
415.000000	0.076327
414.000000	0.077140
413.000000	0.077908
412.000000	0.078456
411.000000	0.079163
410.000000	0.080273
409.000000	0.080975
408.000000	0.081605
407.000000	0.082199
406.000000	0.083150
405.000000	0.084030
404.000000	0.084687
403.000000	0.085649
402.000000	0.086471
401.000000	0.087281
400.000000	0.088167
399.000000	0.089032
398.000000	0.090065
397.000000	0.090889
396.000000	0.091858
395.000000	0.092841
394.000000	0.093716
393.000000	0.094476
392.000000	0.095799
391.000000	0.096761
390.000000	0.097683
389.000000	0.098856
388.000000	0.099894
387.000000	0.100894
386.000000	0.102139
385.000000	0.103185
384.000000	0.104453
383.000000	0.105463
382.000000	0.106645
381.000000	0.107860
380.000000	0.109467
379.000000	0.110507
378.000000	0.111767
377.000000	0.113120
376.000000	0.114508
375.000000	0.115940
374.000000	0.117313
373.000000	0.118775
372.000000	0.120243
371.000000	0.121596
370.000000	0.123291
369.000000	0.124829
368.000000	0.126199
367.000000	0.127834
366.000000	0.129516
365.000000	0.131047
364.000000	0.132768
363.000000	0.134603
362.000000	0.136221
361.000000	0.137844
360.000000	0.139618
359.000000	0.141481
358.000000	0.143277
357.000000	0.145075
356.000000	0.147042
355.000000	0.148949
354.000000	0.150795
353.000000	0.152549
352.000000	0.154660
351.000000	0.156706
350.000000	0.158571
349.000000	0.160676
348.000000	0.162802
347.000000	0.164684
346.000000	0.166739
345.000000	0.168976
344.000000	0.171128
343.000000	0.173162
342.000000	0.175372
341.000000	0.177550
340.000000	0.179822
339.000000	0.181930
338.000000	0.184304
337.000000	0.186652
336.000000	0.188838
335.000000	0.191019
334.000000	0.193548
333.000000	0.195959
332.000000	0.198193
331.000000	0.200610
330.000000	0.203180
329.000000	0.205609
328.000000	0.208118
327.000000	0.210615
326.000000	0.213224
325.000000	0.215778
324.000000	0.218372
323.000000	0.221107
322.000000	0.223767
321.000000	0.226372
320.000000	0.229182
319.000000	0.232143
318.000000	0.234149
317.000000	0.235447
316.000000	0.238249
315.000000	0.241143
314.000000	0.244222
313.000000	0.247216
312.000000	0.250155
311.000000	0.253292
310.000000	0.256544
309.000000	0.259633
308.000000	0.262737
307.000000	0.265929
306.000000	0.269286
305.000000	0.272513
304.000000	0.275802
303.000000	0.279281
302.000000	0.282700
301.000000	0.286065
300.000000	0.289505
299.000000	0.293074
298.000000	0.296669
297.000000	0.300160
296.000000	0.303861
295.000000	0.307709
294.000000	0.311468
293.000000	0.315134
292.000000	0.319074
291.000000	0.323192
290.000000	0.327156
289.000000	0.331247
288.000000	0.335441
287.000000	0.339499
286.000000	0.343530
285.000000	0.347827
284.000000	0.352196
283.000000	0.356202
282.000000	0.360238
281.000000	0.364554
280.000000	0.368864
279.000000	0.373041
278.000000	0.377324
277.000000	0.381802
276.000000	0.386232
275.000000	0.390537
274.000000	0.395037
273.000000	0.399656
272.000000	0.404044
271.000000	0.408455
270.000000	0.412974
269.000000	0.417222
268.000000	0.421459
267.000000	0.425825
266.000000	0.430144
265.000000	0.434290
264.000000	0.438290
263.000000	0.442333
262.000000	0.446412
261.000000	0.450267
260.000000	0.453960
259.000000	0.457749
258.000000	0.461384
257.000000	0.464848
256.000000	0.468468
255.000000	0.472199
254.000000	0.475793
253.000000	0.479438
252.000000	0.483190
251.000000	0.487099
250.000000	0.491080
249.000000	0.495141
248.000000	0.499701
247.000000	0.504381
246.000000	0.509155
245.000000	0.514279
244.000000	0.519787
243.000000	0.525412
242.000000	0.531400
241.000000	0.537773
240.000000	0.544311
239.000000	0.550863
238.000000	0.557883
237.000000	0.565131
236.000000	0.572574
235.000000	0.580185
234.000000	0.588125
233.000000	0.596364
232.000000	0.604571
231.000000	0.612934
230.000000	0.621594
229.000000	0.630235
228.000000	0.638957
227.000000	0.647807
226.000000	0.656685
225.000000	0.666043
224.000000	0.675583
223.000000	0.685631
222.000000	0.696050
221.000000	0.706841
220.000000	0.718159
219.000000	0.730611
218.000000	0.743421
217.000000	0.757479
216.000000	0.772698
215.000000	0.789231
214.000000	0.807396
213.000000	0.827429
212.000000	0.849517
211.000000	0.873949
210.000000	0.900481
209.000000	0.930141
208.000000	0.963333
207.000000	1.000669
206.000000	1.043337
205.000000	1.092908
204.000000	1.151405
203.000000	1.222404
202.000000	1.311070
201.000000	1.425659
200.000000	1.577104
