PE UV       SUBTECH     SPECTRUM    ASCII       PEDS        4.00        
   -1
KI6-01A.Sample.Raw.asc
11/10/21
10:22:41.00
11/10/21
10:22:41.00
Hermanni Kaartokallio

200.000000
1
Lambda 650
650N8121101
PerkinElmer UV WinLab 6.0.2.0723 / 1.61.00 Lambda 650

0
0
2
0
0
UV/VIS
1
1
1
uv/vis/nir detector
0
0
0
0
Fix
 
0
0.24
0
0
0
 
 
 
0
 
0
319.2
0
Front
100
 
 
 
0
0
0
 
0
 
 
 
0
 
 
0
0
0
0
0
 
 
 
 
0
0
#HDR
-1
-1
#GR
nm
A
1.0
0.0
800.000000
-1.000000
601
8
1.647794
0.035602
#DATA
800.000000	0.042154
799.000000	0.042208
798.000000	0.042181
797.000000	0.042137
796.000000	0.042358
795.000000	0.042425
794.000000	0.042497
793.000000	0.042487
792.000000	0.042521
791.000000	0.042685
790.000000	0.042849
789.000000	0.042848
788.000000	0.042876
787.000000	0.042988
786.000000	0.042990
785.000000	0.043143
784.000000	0.043305
783.000000	0.043333
782.000000	0.043409
781.000000	0.043466
780.000000	0.043365
779.000000	0.043572
778.000000	0.043574
777.000000	0.043617
776.000000	0.043608
775.000000	0.043643
774.000000	0.043738
773.000000	0.043836
772.000000	0.043846
771.000000	0.043870
770.000000	0.043868
769.000000	0.043919
768.000000	0.043918
767.000000	0.043992
766.000000	0.044035
765.000000	0.044037
764.000000	0.044129
763.000000	0.044200
762.000000	0.044197
761.000000	0.044196
760.000000	0.044270
759.000000	0.044322
758.000000	0.044307
757.000000	0.044321
756.000000	0.044288
755.000000	0.044385
754.000000	0.044449
753.000000	0.044411
752.000000	0.044429
751.000000	0.044578
750.000000	0.044532
749.000000	0.044492
748.000000	0.044477
747.000000	0.044488
746.000000	0.044556
745.000000	0.044474
744.000000	0.044461
743.000000	0.044519
742.000000	0.044536
741.000000	0.044413
740.000000	0.044338
739.000000	0.044274
738.000000	0.044144
737.000000	0.044013
736.000000	0.043772
735.000000	0.043461
734.000000	0.043085
733.000000	0.042639
732.000000	0.042119
731.000000	0.041632
730.000000	0.041258
729.000000	0.040832
728.000000	0.040397
727.000000	0.039990
726.000000	0.039696
725.000000	0.039450
724.000000	0.039219
723.000000	0.038983
722.000000	0.038818
721.000000	0.038603
720.000000	0.038372
719.000000	0.038197
718.000000	0.037974
717.000000	0.037762
716.000000	0.037635
715.000000	0.037421
714.000000	0.037225
713.000000	0.037195
712.000000	0.037082
711.000000	0.036924
710.000000	0.036815
709.000000	0.036710
708.000000	0.036588
707.000000	0.036447
706.000000	0.036290
705.000000	0.036240
704.000000	0.036244
703.000000	0.036103
702.000000	0.035955
701.000000	0.035930
700.000000	0.035914
699.000000	0.035901
698.000000	0.035838
697.000000	0.035772
696.000000	0.035716
695.000000	0.035687
694.000000	0.035756
693.000000	0.035772
692.000000	0.035757
691.000000	0.035679
690.000000	0.035614
689.000000	0.035649
688.000000	0.035602
687.000000	0.035618
686.000000	0.035652
685.000000	0.035623
684.000000	0.035661
683.000000	0.035656
682.000000	0.035633
681.000000	0.035666
680.000000	0.035735
679.000000	0.035743
678.000000	0.035722
677.000000	0.035747
676.000000	0.035791
675.000000	0.035749
674.000000	0.035824
673.000000	0.035866
672.000000	0.035886
671.000000	0.035902
670.000000	0.035964
669.000000	0.035992
668.000000	0.036061
667.000000	0.036141
666.000000	0.036150
665.000000	0.036224
664.000000	0.036233
663.000000	0.036260
662.000000	0.036294
661.000000	0.036341
660.000000	0.036379
659.000000	0.036396
658.000000	0.036407
657.000000	0.036385
656.000000	0.036414
655.000000	0.036454
654.000000	0.036506
653.000000	0.036511
652.000000	0.036497
651.000000	0.036571
650.000000	0.036641
649.000000	0.036686
648.000000	0.036695
647.000000	0.036761
646.000000	0.036813
645.000000	0.036918
644.000000	0.036949
643.000000	0.036964
642.000000	0.037044
641.000000	0.037105
640.000000	0.037122
639.000000	0.037172
638.000000	0.037186
637.000000	0.037307
636.000000	0.037307
635.000000	0.037347
634.000000	0.037360
633.000000	0.037433
632.000000	0.037492
631.000000	0.037610
630.000000	0.037649
629.000000	0.037621
628.000000	0.037630
627.000000	0.037758
626.000000	0.037818
625.000000	0.037913
624.000000	0.037925
623.000000	0.037983
622.000000	0.038109
621.000000	0.038131
620.000000	0.038227
619.000000	0.038236
618.000000	0.038352
617.000000	0.038470
616.000000	0.038488
615.000000	0.038573
614.000000	0.038614
613.000000	0.038659
612.000000	0.038824
611.000000	0.038913
610.000000	0.038981
609.000000	0.039019
608.000000	0.039164
607.000000	0.039245
606.000000	0.039280
605.000000	0.039323
604.000000	0.039362
603.000000	0.039541
602.000000	0.039612
601.000000	0.039714
600.000000	0.039766
599.000000	0.039825
598.000000	0.039802
597.000000	0.039883
596.000000	0.039951
595.000000	0.040060
594.000000	0.040035
593.000000	0.040132
592.000000	0.040257
591.000000	0.040161
590.000000	0.040335
589.000000	0.040343
588.000000	0.040568
587.000000	0.040571
586.000000	0.040685
585.000000	0.040706
584.000000	0.040771
583.000000	0.040821
582.000000	0.040961
581.000000	0.041054
580.000000	0.041086
579.000000	0.041067
578.000000	0.041213
577.000000	0.041300
576.000000	0.041358
575.000000	0.041455
574.000000	0.041573
573.000000	0.041555
572.000000	0.041768
571.000000	0.041836
570.000000	0.041905
569.000000	0.041962
568.000000	0.042009
567.000000	0.042066
566.000000	0.042231
565.000000	0.042350
564.000000	0.042389
563.000000	0.042426
562.000000	0.042616
561.000000	0.042591
560.000000	0.042712
559.000000	0.042836
558.000000	0.042879
557.000000	0.043029
556.000000	0.043216
555.000000	0.043206
554.000000	0.043288
553.000000	0.043406
552.000000	0.043554
551.000000	0.043565
550.000000	0.043678
549.000000	0.043728
548.000000	0.043801
547.000000	0.043916
546.000000	0.044030
545.000000	0.044165
544.000000	0.044238
543.000000	0.044360
542.000000	0.044461
541.000000	0.044608
540.000000	0.044778
539.000000	0.044841
538.000000	0.045009
537.000000	0.045149
536.000000	0.045250
535.000000	0.045453
534.000000	0.045601
533.000000	0.045714
532.000000	0.045841
531.000000	0.046028
530.000000	0.046118
529.000000	0.046322
528.000000	0.046505
527.000000	0.046688
526.000000	0.046842
525.000000	0.047029
524.000000	0.047196
523.000000	0.047342
522.000000	0.047519
521.000000	0.047682
520.000000	0.047876
519.000000	0.048033
518.000000	0.048252
517.000000	0.048537
516.000000	0.048715
515.000000	0.048873
514.000000	0.049050
513.000000	0.049225
512.000000	0.049393
511.000000	0.049626
510.000000	0.049839
509.000000	0.050021
508.000000	0.050200
507.000000	0.050376
506.000000	0.050594
505.000000	0.050833
504.000000	0.050993
503.000000	0.051192
502.000000	0.051421
501.000000	0.051595
500.000000	0.051745
499.000000	0.051991
498.000000	0.052246
497.000000	0.052416
496.000000	0.052590
495.000000	0.052793
494.000000	0.052970
493.000000	0.053242
492.000000	0.053523
491.000000	0.053721
490.000000	0.053942
489.000000	0.054148
488.000000	0.054389
487.000000	0.054642
486.000000	0.054913
485.000000	0.055168
484.000000	0.055374
483.000000	0.055617
482.000000	0.055830
481.000000	0.056138
480.000000	0.056417
479.000000	0.056665
478.000000	0.056879
477.000000	0.057106
476.000000	0.057456
475.000000	0.057689
474.000000	0.058022
473.000000	0.058325
472.000000	0.058659
471.000000	0.058971
470.000000	0.059274
469.000000	0.059654
468.000000	0.060028
467.000000	0.060421
466.000000	0.060779
465.000000	0.061082
464.000000	0.061501
463.000000	0.061907
462.000000	0.062189
461.000000	0.062615
460.000000	0.063070
459.000000	0.063436
458.000000	0.063896
457.000000	0.064364
456.000000	0.064803
455.000000	0.065262
454.000000	0.065730
453.000000	0.066178
452.000000	0.066697
451.000000	0.067243
450.000000	0.067693
449.000000	0.068128
448.000000	0.068686
447.000000	0.069263
446.000000	0.069832
445.000000	0.070401
444.000000	0.070994
443.000000	0.071586
442.000000	0.072136
441.000000	0.072620
440.000000	0.073374
439.000000	0.074040
438.000000	0.074655
437.000000	0.075334
436.000000	0.075993
435.000000	0.076579
434.000000	0.077292
433.000000	0.078018
432.000000	0.078772
431.000000	0.079495
430.000000	0.080190
429.000000	0.080901
428.000000	0.081727
427.000000	0.082447
426.000000	0.083295
425.000000	0.083885
424.000000	0.084898
423.000000	0.085661
422.000000	0.086558
421.000000	0.087359
420.000000	0.088261
419.000000	0.089141
418.000000	0.090032
417.000000	0.090960
416.000000	0.091824
415.000000	0.092633
414.000000	0.093586
413.000000	0.094511
412.000000	0.095358
411.000000	0.096402
410.000000	0.097689
409.000000	0.098517
408.000000	0.099493
407.000000	0.100377
406.000000	0.101523
405.000000	0.102687
404.000000	0.103718
403.000000	0.104773
402.000000	0.105894
401.000000	0.107157
400.000000	0.108356
399.000000	0.109420
398.000000	0.110731
397.000000	0.111925
396.000000	0.113209
395.000000	0.114477
394.000000	0.115709
393.000000	0.116892
392.000000	0.118477
391.000000	0.119707
390.000000	0.121147
389.000000	0.122649
388.000000	0.123967
387.000000	0.125400
386.000000	0.127095
385.000000	0.128594
384.000000	0.130040
383.000000	0.131604
382.000000	0.133228
381.000000	0.134926
380.000000	0.136886
379.000000	0.138347
378.000000	0.140024
377.000000	0.141780
376.000000	0.143604
375.000000	0.145686
374.000000	0.147502
373.000000	0.149311
372.000000	0.151246
371.000000	0.153222
370.000000	0.155309
369.000000	0.157401
368.000000	0.159519
367.000000	0.161594
366.000000	0.163648
365.000000	0.165890
364.000000	0.168161
363.000000	0.170400
362.000000	0.172649
361.000000	0.174959
360.000000	0.177382
359.000000	0.179682
358.000000	0.182152
357.000000	0.184679
356.000000	0.187189
355.000000	0.189640
354.000000	0.192107
353.000000	0.194707
352.000000	0.197324
351.000000	0.199999
350.000000	0.202634
349.000000	0.205372
348.000000	0.208081
347.000000	0.210708
346.000000	0.213524
345.000000	0.216363
344.000000	0.219142
343.000000	0.221985
342.000000	0.224942
341.000000	0.227726
340.000000	0.230679
339.000000	0.233699
338.000000	0.236696
337.000000	0.239605
336.000000	0.242709
335.000000	0.245711
334.000000	0.248778
333.000000	0.251895
332.000000	0.255092
331.000000	0.258259
330.000000	0.261483
329.000000	0.264785
328.000000	0.268110
327.000000	0.271339
326.000000	0.274714
325.000000	0.278075
324.000000	0.281567
323.000000	0.284927
322.000000	0.288500
321.000000	0.292036
320.000000	0.295588
319.000000	0.299294
318.000000	0.302229
317.000000	0.304282
316.000000	0.307991
315.000000	0.311864
314.000000	0.315711
313.000000	0.319510
312.000000	0.323416
311.000000	0.327444
310.000000	0.331489
309.000000	0.335581
308.000000	0.339707
307.000000	0.343780
306.000000	0.347879
305.000000	0.351943
304.000000	0.356123
303.000000	0.360488
302.000000	0.364805
301.000000	0.369235
300.000000	0.373685
299.000000	0.378156
298.000000	0.382603
297.000000	0.387189
296.000000	0.391875
295.000000	0.396615
294.000000	0.401370
293.000000	0.406165
292.000000	0.411070
291.000000	0.416037
290.000000	0.421025
289.000000	0.426187
288.000000	0.431390
287.000000	0.436541
286.000000	0.441739
285.000000	0.447023
284.000000	0.452246
283.000000	0.457507
282.000000	0.462870
281.000000	0.468157
280.000000	0.473402
279.000000	0.478702
278.000000	0.484139
277.000000	0.489595
276.000000	0.495049
275.000000	0.500486
274.000000	0.505938
273.000000	0.511534
272.000000	0.517173
271.000000	0.522742
270.000000	0.528209
269.000000	0.533522
268.000000	0.538912
267.000000	0.544363
266.000000	0.549644
265.000000	0.554794
264.000000	0.559982
263.000000	0.565107
262.000000	0.570146
261.000000	0.575030
260.000000	0.579773
259.000000	0.584456
258.000000	0.589044
257.000000	0.593687
256.000000	0.598375
255.000000	0.602954
254.000000	0.607672
253.000000	0.612460
252.000000	0.617240
251.000000	0.622184
250.000000	0.627407
249.000000	0.632627
248.000000	0.638301
247.000000	0.644222
246.000000	0.650626
245.000000	0.657326
244.000000	0.664227
243.000000	0.671571
242.000000	0.679533
241.000000	0.687562
240.000000	0.695893
239.000000	0.704630
238.000000	0.713526
237.000000	0.722733
236.000000	0.732174
235.000000	0.742035
234.000000	0.752056
233.000000	0.762332
232.000000	0.772843
231.000000	0.783504
230.000000	0.794292
229.000000	0.805074
228.000000	0.815966
227.000000	0.826936
226.000000	0.838151
225.000000	0.849844
224.000000	0.861549
223.000000	0.873699
222.000000	0.886278
221.000000	0.899217
220.000000	0.912973
219.000000	0.927320
218.000000	0.942026
217.000000	0.957819
216.000000	0.974698
215.000000	0.992473
214.000000	1.011885
213.000000	1.032430
212.000000	1.054590
211.000000	1.078067
210.000000	1.103391
209.000000	1.130459
208.000000	1.159849
207.000000	1.192286
206.000000	1.228671
205.000000	1.269316
204.000000	1.316343
203.000000	1.373094
202.000000	1.442390
201.000000	1.531506
200.000000	1.647794
