PE UV       SUBTECH     SPECTRUM    ASCII       PEDS        4.00        
   -1
KI6-02A.Sample.Raw.asc
11/10/21
10:42:01.00
11/10/21
10:42:01.00
Hermanni Kaartokallio

200.000000
1
Lambda 650
650N8121101
PerkinElmer UV WinLab 6.0.2.0723 / 1.61.00 Lambda 650

0
0
2
0
0
UV/VIS
1
1
1
uv/vis/nir detector
0
0
0
0
Fix
 
0
0.24
0
0
0
 
 
 
0
 
0
319.2
0
Front
100
 
 
 
0
0
0
 
0
 
 
 
0
 
 
0
0
0
0
0
 
 
 
 
0
0
#HDR
-1
-1
#GR
nm
A
1.0
0.0
800.000000
-1.000000
601
8
1.491241
0.033135
#DATA
800.000000	0.041186
799.000000	0.041248
798.000000	0.041350
797.000000	0.041337
796.000000	0.041592
795.000000	0.041600
794.000000	0.041629
793.000000	0.041680
792.000000	0.041720
791.000000	0.041788
790.000000	0.042022
789.000000	0.042041
788.000000	0.041981
787.000000	0.042073
786.000000	0.042141
785.000000	0.042271
784.000000	0.042378
783.000000	0.042447
782.000000	0.042525
781.000000	0.042597
780.000000	0.042583
779.000000	0.042748
778.000000	0.042702
777.000000	0.042700
776.000000	0.042731
775.000000	0.042830
774.000000	0.042929
773.000000	0.042883
772.000000	0.043019
771.000000	0.043085
770.000000	0.043053
769.000000	0.043088
768.000000	0.043083
767.000000	0.043150
766.000000	0.043148
765.000000	0.043147
764.000000	0.043200
763.000000	0.043252
762.000000	0.043120
761.000000	0.043235
760.000000	0.043347
759.000000	0.043322
758.000000	0.043265
757.000000	0.043295
756.000000	0.043249
755.000000	0.043328
754.000000	0.043389
753.000000	0.043426
752.000000	0.043417
751.000000	0.043441
750.000000	0.043453
749.000000	0.043468
748.000000	0.043459
747.000000	0.043404
746.000000	0.043431
745.000000	0.043397
744.000000	0.043298
743.000000	0.043300
742.000000	0.043340
741.000000	0.043196
740.000000	0.043180
739.000000	0.043074
738.000000	0.042954
737.000000	0.042796
736.000000	0.042491
735.000000	0.042201
734.000000	0.041801
733.000000	0.041322
732.000000	0.040817
731.000000	0.040372
730.000000	0.039953
729.000000	0.039373
728.000000	0.038876
727.000000	0.038534
726.000000	0.038239
725.000000	0.037952
724.000000	0.037745
723.000000	0.037478
722.000000	0.037225
721.000000	0.037024
720.000000	0.036798
719.000000	0.036540
718.000000	0.036341
717.000000	0.036128
716.000000	0.035947
715.000000	0.035751
714.000000	0.035617
713.000000	0.035490
712.000000	0.035288
711.000000	0.035131
710.000000	0.035034
709.000000	0.034921
708.000000	0.034730
707.000000	0.034548
706.000000	0.034413
705.000000	0.034331
704.000000	0.034270
703.000000	0.034113
702.000000	0.033974
701.000000	0.033889
700.000000	0.033838
699.000000	0.033824
698.000000	0.033788
697.000000	0.033690
696.000000	0.033614
695.000000	0.033616
694.000000	0.033581
693.000000	0.033519
692.000000	0.033517
691.000000	0.033462
690.000000	0.033352
689.000000	0.033362
688.000000	0.033295
687.000000	0.033255
686.000000	0.033263
685.000000	0.033263
684.000000	0.033268
683.000000	0.033272
682.000000	0.033246
681.000000	0.033221
680.000000	0.033243
679.000000	0.033200
678.000000	0.033215
677.000000	0.033239
676.000000	0.033225
675.000000	0.033135
674.000000	0.033139
673.000000	0.033219
672.000000	0.033220
671.000000	0.033214
670.000000	0.033244
669.000000	0.033258
668.000000	0.033260
667.000000	0.033319
666.000000	0.033303
665.000000	0.033256
664.000000	0.033225
663.000000	0.033279
662.000000	0.033350
661.000000	0.033391
660.000000	0.033353
659.000000	0.033340
658.000000	0.033283
657.000000	0.033216
656.000000	0.033229
655.000000	0.033196
654.000000	0.033169
653.000000	0.033152
652.000000	0.033233
651.000000	0.033252
650.000000	0.033218
649.000000	0.033260
648.000000	0.033273
647.000000	0.033252
646.000000	0.033243
645.000000	0.033303
644.000000	0.033302
643.000000	0.033283
642.000000	0.033353
641.000000	0.033399
640.000000	0.033331
639.000000	0.033321
638.000000	0.033315
637.000000	0.033376
636.000000	0.033351
635.000000	0.033359
634.000000	0.033335
633.000000	0.033355
632.000000	0.033409
631.000000	0.033412
630.000000	0.033456
629.000000	0.033365
628.000000	0.033343
627.000000	0.033390
626.000000	0.033447
625.000000	0.033423
624.000000	0.033437
623.000000	0.033458
622.000000	0.033543
621.000000	0.033515
620.000000	0.033560
619.000000	0.033590
618.000000	0.033649
617.000000	0.033637
616.000000	0.033684
615.000000	0.033709
614.000000	0.033652
613.000000	0.033659
612.000000	0.033787
611.000000	0.033821
610.000000	0.033782
609.000000	0.033742
608.000000	0.033918
607.000000	0.033947
606.000000	0.033855
605.000000	0.034019
604.000000	0.033914
603.000000	0.034028
602.000000	0.034069
601.000000	0.034109
600.000000	0.034124
599.000000	0.034080
598.000000	0.034103
597.000000	0.034068
596.000000	0.034020
595.000000	0.034054
594.000000	0.034087
593.000000	0.034141
592.000000	0.034196
591.000000	0.034131
590.000000	0.034244
589.000000	0.034196
588.000000	0.034234
587.000000	0.034173
586.000000	0.034267
585.000000	0.034197
584.000000	0.034250
583.000000	0.034281
582.000000	0.034347
581.000000	0.034288
580.000000	0.034266
579.000000	0.034233
578.000000	0.034269
577.000000	0.034343
576.000000	0.034220
575.000000	0.034301
574.000000	0.034350
573.000000	0.034222
572.000000	0.034385
571.000000	0.034356
570.000000	0.034309
569.000000	0.034326
568.000000	0.034382
567.000000	0.034341
566.000000	0.034308
565.000000	0.034481
564.000000	0.034416
563.000000	0.034366
562.000000	0.034435
561.000000	0.034409
560.000000	0.034429
559.000000	0.034490
558.000000	0.034459
557.000000	0.034479
556.000000	0.034548
555.000000	0.034471
554.000000	0.034404
553.000000	0.034528
552.000000	0.034492
551.000000	0.034475
550.000000	0.034496
549.000000	0.034419
548.000000	0.034378
547.000000	0.034447
546.000000	0.034444
545.000000	0.034458
544.000000	0.034464
543.000000	0.034460
542.000000	0.034432
541.000000	0.034501
540.000000	0.034525
539.000000	0.034533
538.000000	0.034587
537.000000	0.034617
536.000000	0.034590
535.000000	0.034695
534.000000	0.034690
533.000000	0.034749
532.000000	0.034783
531.000000	0.034819
530.000000	0.034831
529.000000	0.034922
528.000000	0.034935
527.000000	0.035011
526.000000	0.035072
525.000000	0.035066
524.000000	0.035106
523.000000	0.035147
522.000000	0.035236
521.000000	0.035308
520.000000	0.035371
519.000000	0.035420
518.000000	0.035437
517.000000	0.035563
516.000000	0.035604
515.000000	0.035643
514.000000	0.035727
513.000000	0.035739
512.000000	0.035748
511.000000	0.035855
510.000000	0.035922
509.000000	0.035911
508.000000	0.035933
507.000000	0.036013
506.000000	0.036037
505.000000	0.036084
504.000000	0.036089
503.000000	0.036176
502.000000	0.036252
501.000000	0.036186
500.000000	0.036246
499.000000	0.036356
498.000000	0.036409
497.000000	0.036430
496.000000	0.036468
495.000000	0.036472
494.000000	0.036425
493.000000	0.036534
492.000000	0.036616
491.000000	0.036610
490.000000	0.036652
489.000000	0.036693
488.000000	0.036691
487.000000	0.036711
486.000000	0.036823
485.000000	0.036896
484.000000	0.036883
483.000000	0.036883
482.000000	0.036898
481.000000	0.037006
480.000000	0.037048
479.000000	0.037017
478.000000	0.037041
477.000000	0.037046
476.000000	0.037133
475.000000	0.037123
474.000000	0.037238
473.000000	0.037277
472.000000	0.037339
471.000000	0.037444
470.000000	0.037513
469.000000	0.037641
468.000000	0.037716
467.000000	0.037794
466.000000	0.037890
465.000000	0.037863
464.000000	0.037960
463.000000	0.038114
462.000000	0.038137
461.000000	0.038241
460.000000	0.038355
459.000000	0.038415
458.000000	0.038487
457.000000	0.038645
456.000000	0.038765
455.000000	0.038884
454.000000	0.039029
453.000000	0.039101
452.000000	0.039194
451.000000	0.039301
450.000000	0.039419
449.000000	0.039578
448.000000	0.039723
447.000000	0.039775
446.000000	0.039955
445.000000	0.040124
444.000000	0.040264
443.000000	0.040378
442.000000	0.040588
441.000000	0.040664
440.000000	0.040895
439.000000	0.040990
438.000000	0.041138
437.000000	0.041347
436.000000	0.041543
435.000000	0.041617
434.000000	0.041810
433.000000	0.042046
432.000000	0.042217
431.000000	0.042369
430.000000	0.042585
429.000000	0.042731
428.000000	0.042909
427.000000	0.043129
426.000000	0.043297
425.000000	0.043337
424.000000	0.043716
423.000000	0.043907
422.000000	0.044071
421.000000	0.044299
420.000000	0.044545
419.000000	0.044769
418.000000	0.044952
417.000000	0.045181
416.000000	0.045460
415.000000	0.045488
414.000000	0.045740
413.000000	0.045958
412.000000	0.046017
411.000000	0.046235
410.000000	0.046710
409.000000	0.046795
408.000000	0.047021
407.000000	0.047075
406.000000	0.047372
405.000000	0.047659
404.000000	0.047796
403.000000	0.048074
402.000000	0.048258
401.000000	0.048556
400.000000	0.048842
399.000000	0.049048
398.000000	0.049368
397.000000	0.049587
396.000000	0.049834
395.000000	0.050052
394.000000	0.050279
393.000000	0.050518
392.000000	0.050903
391.000000	0.051147
390.000000	0.051401
389.000000	0.051741
388.000000	0.051925
387.000000	0.052121
386.000000	0.052751
385.000000	0.052841
384.000000	0.053165
383.000000	0.053534
382.000000	0.053813
381.000000	0.054089
380.000000	0.054722
379.000000	0.054934
378.000000	0.055169
377.000000	0.055541
376.000000	0.055997
375.000000	0.056414
374.000000	0.056857
373.000000	0.057153
372.000000	0.057673
371.000000	0.058022
370.000000	0.058490
369.000000	0.058957
368.000000	0.059420
367.000000	0.059844
366.000000	0.060305
365.000000	0.060797
364.000000	0.061240
363.000000	0.061763
362.000000	0.062226
361.000000	0.062763
360.000000	0.063303
359.000000	0.063787
358.000000	0.064342
357.000000	0.064944
356.000000	0.065406
355.000000	0.066000
354.000000	0.066629
353.000000	0.067176
352.000000	0.067740
351.000000	0.068383
350.000000	0.068975
349.000000	0.069591
348.000000	0.070255
347.000000	0.070833
346.000000	0.071552
345.000000	0.072198
344.000000	0.072800
343.000000	0.073567
342.000000	0.074368
341.000000	0.074895
340.000000	0.075590
339.000000	0.076374
338.000000	0.077147
337.000000	0.077906
336.000000	0.078688
335.000000	0.079394
334.000000	0.080185
333.000000	0.080982
332.000000	0.081794
331.000000	0.082645
330.000000	0.083551
329.000000	0.084426
328.000000	0.085281
327.000000	0.086101
326.000000	0.087066
325.000000	0.087987
324.000000	0.088996
323.000000	0.089910
322.000000	0.090968
321.000000	0.091859
320.000000	0.092862
319.000000	0.093957
318.000000	0.094115
317.000000	0.093252
316.000000	0.094197
315.000000	0.095394
314.000000	0.096607
313.000000	0.097719
312.000000	0.098895
311.000000	0.100190
310.000000	0.101423
309.000000	0.102717
308.000000	0.104118
307.000000	0.105324
306.000000	0.106635
305.000000	0.108019
304.000000	0.109402
303.000000	0.110875
302.000000	0.112372
301.000000	0.113872
300.000000	0.115382
299.000000	0.116840
298.000000	0.118409
297.000000	0.120117
296.000000	0.121876
295.000000	0.123599
294.000000	0.125374
293.000000	0.127190
292.000000	0.129033
291.000000	0.131000
290.000000	0.132912
289.000000	0.134891
288.000000	0.136877
287.000000	0.138808
286.000000	0.140852
285.000000	0.142961
284.000000	0.145031
283.000000	0.147145
282.000000	0.149280
281.000000	0.151365
280.000000	0.153487
279.000000	0.155575
278.000000	0.157721
277.000000	0.159922
276.000000	0.162149
275.000000	0.164389
274.000000	0.166622
273.000000	0.168880
272.000000	0.171087
271.000000	0.173228
270.000000	0.175346
269.000000	0.177428
268.000000	0.179525
267.000000	0.181590
266.000000	0.183571
265.000000	0.185570
264.000000	0.187533
263.000000	0.189348
262.000000	0.191162
261.000000	0.193019
260.000000	0.194607
259.000000	0.196224
258.000000	0.197783
257.000000	0.199361
256.000000	0.200850
255.000000	0.202338
254.000000	0.203882
253.000000	0.205437
252.000000	0.206925
251.000000	0.208420
250.000000	0.209975
249.000000	0.211665
248.000000	0.213508
247.000000	0.215422
246.000000	0.217295
245.000000	0.219290
244.000000	0.221462
243.000000	0.223846
242.000000	0.226438
241.000000	0.229122
240.000000	0.231834
239.000000	0.234584
238.000000	0.237611
237.000000	0.240774
236.000000	0.244016
235.000000	0.247417
234.000000	0.251040
233.000000	0.254790
232.000000	0.258506
231.000000	0.262483
230.000000	0.266511
229.000000	0.270539
228.000000	0.274773
227.000000	0.279143
226.000000	0.283605
225.000000	0.288498
224.000000	0.293616
223.000000	0.299012
222.000000	0.304951
221.000000	0.311443
220.000000	0.318578
219.000000	0.326671
218.000000	0.335608
217.000000	0.346228
216.000000	0.358399
215.000000	0.372617
214.000000	0.389484
213.000000	0.408894
212.000000	0.431831
211.000000	0.459132
210.000000	0.490949
209.000000	0.527878
208.000000	0.571152
207.000000	0.622085
206.000000	0.681530
205.000000	0.752987
204.000000	0.839970
203.000000	0.947371
202.000000	1.083440
201.000000	1.259369
200.000000	1.491241
