PE UV       SUBTECH     SPECTRUM    ASCII       PEDS        4.00        
   -1
MQ22110.Sample.Raw.asc
11/10/21
11:01:52.00
11/10/21
11:01:52.00
Hermanni Kaartokallio

200.000000
1
Lambda 650
650N8121101
PerkinElmer UV WinLab 6.0.2.0723 / 1.61.00 Lambda 650

0
0
2
0
0
UV/VIS
1
1
1
uv/vis/nir detector
0
0
0
0
Fix
 
0
0.24
0
0
0
 
 
 
0
 
0
319.2
0
Front
100
 
 
 
0
0
0
 
0
 
 
 
0
 
 
0
0
0
0
0
 
 
 
 
0
0
#HDR
-1
-1
#GR
nm
A
1.0
0.0
800.000000
-1.000000
601
8
0.083247
0.031547
#DATA
800.000000	0.040239
799.000000	0.040253
798.000000	0.040310
797.000000	0.040331
796.000000	0.040472
795.000000	0.040561
794.000000	0.040605
793.000000	0.040647
792.000000	0.040660
791.000000	0.040702
790.000000	0.040898
789.000000	0.041005
788.000000	0.041001
787.000000	0.041052
786.000000	0.041095
785.000000	0.041178
784.000000	0.041179
783.000000	0.041290
782.000000	0.041414
781.000000	0.041483
780.000000	0.041341
779.000000	0.041430
778.000000	0.041567
777.000000	0.041589
776.000000	0.041664
775.000000	0.041663
774.000000	0.041675
773.000000	0.041733
772.000000	0.041764
771.000000	0.041847
770.000000	0.041876
769.000000	0.041951
768.000000	0.041925
767.000000	0.041944
766.000000	0.041934
765.000000	0.041986
764.000000	0.042120
763.000000	0.042263
762.000000	0.042204
761.000000	0.042192
760.000000	0.042259
759.000000	0.042326
758.000000	0.042269
757.000000	0.042334
756.000000	0.042290
755.000000	0.042292
754.000000	0.042353
753.000000	0.042408
752.000000	0.042399
751.000000	0.042405
750.000000	0.042419
749.000000	0.042423
748.000000	0.042384
747.000000	0.042313
746.000000	0.042377
745.000000	0.042360
744.000000	0.042245
743.000000	0.042230
742.000000	0.042293
741.000000	0.042160
740.000000	0.042045
739.000000	0.041981
738.000000	0.041872
737.000000	0.041642
736.000000	0.041386
735.000000	0.041111
734.000000	0.040719
733.000000	0.040277
732.000000	0.039770
731.000000	0.039233
730.000000	0.038789
729.000000	0.038244
728.000000	0.037730
727.000000	0.037376
726.000000	0.037031
725.000000	0.036760
724.000000	0.036574
723.000000	0.036331
722.000000	0.036120
721.000000	0.035901
720.000000	0.035686
719.000000	0.035415
718.000000	0.035172
717.000000	0.034971
716.000000	0.034816
715.000000	0.034573
714.000000	0.034393
713.000000	0.034305
712.000000	0.034118
711.000000	0.033937
710.000000	0.033824
709.000000	0.033692
708.000000	0.033516
707.000000	0.033367
706.000000	0.033195
705.000000	0.033092
704.000000	0.033027
703.000000	0.032920
702.000000	0.032828
701.000000	0.032739
700.000000	0.032686
699.000000	0.032691
698.000000	0.032614
697.000000	0.032503
696.000000	0.032433
695.000000	0.032388
694.000000	0.032353
693.000000	0.032298
692.000000	0.032278
691.000000	0.032241
690.000000	0.032196
689.000000	0.032204
688.000000	0.032182
687.000000	0.032156
686.000000	0.032093
685.000000	0.032064
684.000000	0.032094
683.000000	0.031995
682.000000	0.031899
681.000000	0.031940
680.000000	0.031997
679.000000	0.031904
678.000000	0.031920
677.000000	0.031975
676.000000	0.031926
675.000000	0.031788
674.000000	0.031805
673.000000	0.031894
672.000000	0.031872
671.000000	0.031912
670.000000	0.031927
669.000000	0.031891
668.000000	0.031933
667.000000	0.031980
666.000000	0.031919
665.000000	0.031872
664.000000	0.031859
663.000000	0.031943
662.000000	0.031964
661.000000	0.031952
660.000000	0.031930
659.000000	0.031925
658.000000	0.031891
657.000000	0.031815
656.000000	0.031852
655.000000	0.031847
654.000000	0.031804
653.000000	0.031761
652.000000	0.031775
651.000000	0.031770
650.000000	0.031745
649.000000	0.031775
648.000000	0.031798
647.000000	0.031807
646.000000	0.031769
645.000000	0.031841
644.000000	0.031817
643.000000	0.031753
642.000000	0.031840
641.000000	0.031890
640.000000	0.031834
639.000000	0.031835
638.000000	0.031815
637.000000	0.031842
636.000000	0.031833
635.000000	0.031815
634.000000	0.031837
633.000000	0.031824
632.000000	0.031800
631.000000	0.031833
630.000000	0.031876
629.000000	0.031831
628.000000	0.031782
627.000000	0.031812
626.000000	0.031860
625.000000	0.031862
624.000000	0.031843
623.000000	0.031839
622.000000	0.031954
621.000000	0.031937
620.000000	0.031958
619.000000	0.031933
618.000000	0.031995
617.000000	0.031947
616.000000	0.031983
615.000000	0.031965
614.000000	0.031993
613.000000	0.031959
612.000000	0.032031
611.000000	0.032120
610.000000	0.032096
609.000000	0.032094
608.000000	0.032183
607.000000	0.032159
606.000000	0.032194
605.000000	0.032270
604.000000	0.032157
603.000000	0.032195
602.000000	0.032269
601.000000	0.032329
600.000000	0.032318
599.000000	0.032222
598.000000	0.032224
597.000000	0.032183
596.000000	0.032192
595.000000	0.032145
594.000000	0.032146
593.000000	0.032144
592.000000	0.032176
591.000000	0.032007
590.000000	0.032145
589.000000	0.032114
588.000000	0.032189
587.000000	0.032142
586.000000	0.032237
585.000000	0.032129
584.000000	0.032130
583.000000	0.032113
582.000000	0.032127
581.000000	0.032109
580.000000	0.032081
579.000000	0.032016
578.000000	0.032054
577.000000	0.032033
576.000000	0.032041
575.000000	0.032027
574.000000	0.032032
573.000000	0.031919
572.000000	0.031976
571.000000	0.031977
570.000000	0.031911
569.000000	0.031937
568.000000	0.031917
567.000000	0.031897
566.000000	0.031889
565.000000	0.031890
564.000000	0.031972
563.000000	0.031840
562.000000	0.031901
561.000000	0.031841
560.000000	0.031845
559.000000	0.031829
558.000000	0.031757
557.000000	0.031792
556.000000	0.031836
555.000000	0.031776
554.000000	0.031756
553.000000	0.031779
552.000000	0.031774
551.000000	0.031704
550.000000	0.031733
549.000000	0.031664
548.000000	0.031608
547.000000	0.031597
546.000000	0.031609
545.000000	0.031605
544.000000	0.031625
543.000000	0.031583
542.000000	0.031547
541.000000	0.031584
540.000000	0.031616
539.000000	0.031594
538.000000	0.031591
537.000000	0.031608
536.000000	0.031575
535.000000	0.031655
534.000000	0.031673
533.000000	0.031695
532.000000	0.031674
531.000000	0.031664
530.000000	0.031659
529.000000	0.031715
528.000000	0.031745
527.000000	0.031779
526.000000	0.031831
525.000000	0.031858
524.000000	0.031882
523.000000	0.031888
522.000000	0.031885
521.000000	0.031883
520.000000	0.031932
519.000000	0.032024
518.000000	0.032048
517.000000	0.032095
516.000000	0.032105
515.000000	0.032128
514.000000	0.032160
513.000000	0.032178
512.000000	0.032165
511.000000	0.032200
510.000000	0.032247
509.000000	0.032228
508.000000	0.032247
507.000000	0.032272
506.000000	0.032244
505.000000	0.032242
504.000000	0.032272
503.000000	0.032329
502.000000	0.032348
501.000000	0.032272
500.000000	0.032273
499.000000	0.032306
498.000000	0.032309
497.000000	0.032325
496.000000	0.032318
495.000000	0.032289
494.000000	0.032253
493.000000	0.032291
492.000000	0.032325
491.000000	0.032314
490.000000	0.032308
489.000000	0.032297
488.000000	0.032292
487.000000	0.032250
486.000000	0.032274
485.000000	0.032276
484.000000	0.032263
483.000000	0.032249
482.000000	0.032195
481.000000	0.032251
480.000000	0.032233
479.000000	0.032172
478.000000	0.032120
477.000000	0.032078
476.000000	0.032147
475.000000	0.032071
474.000000	0.032098
473.000000	0.032089
472.000000	0.032138
471.000000	0.032198
470.000000	0.032128
469.000000	0.032142
468.000000	0.032147
467.000000	0.032198
466.000000	0.032203
465.000000	0.032129
464.000000	0.032181
463.000000	0.032280
462.000000	0.032252
461.000000	0.032286
460.000000	0.032346
459.000000	0.032291
458.000000	0.032322
457.000000	0.032390
456.000000	0.032394
455.000000	0.032466
454.000000	0.032519
453.000000	0.032454
452.000000	0.032518
451.000000	0.032627
450.000000	0.032595
449.000000	0.032626
448.000000	0.032631
447.000000	0.032673
446.000000	0.032677
445.000000	0.032764
444.000000	0.032867
443.000000	0.032877
442.000000	0.032919
441.000000	0.032922
440.000000	0.033061
439.000000	0.033068
438.000000	0.033037
437.000000	0.033114
436.000000	0.033273
435.000000	0.033206
434.000000	0.033217
433.000000	0.033319
432.000000	0.033396
431.000000	0.033409
430.000000	0.033406
429.000000	0.033484
428.000000	0.033496
427.000000	0.033607
426.000000	0.033691
425.000000	0.033555
424.000000	0.033738
423.000000	0.033737
422.000000	0.033827
421.000000	0.033856
420.000000	0.033913
419.000000	0.033997
418.000000	0.034003
417.000000	0.034066
416.000000	0.034113
415.000000	0.033927
414.000000	0.034063
413.000000	0.034051
412.000000	0.033975
411.000000	0.034005
410.000000	0.034259
409.000000	0.034113
408.000000	0.034148
407.000000	0.033967
406.000000	0.034095
405.000000	0.034249
404.000000	0.034108
403.000000	0.034128
402.000000	0.034136
401.000000	0.034130
400.000000	0.034190
399.000000	0.034090
398.000000	0.034263
397.000000	0.034184
396.000000	0.034130
395.000000	0.034119
394.000000	0.034049
393.000000	0.033979
392.000000	0.034127
391.000000	0.034048
390.000000	0.033949
389.000000	0.034061
388.000000	0.033995
387.000000	0.033925
386.000000	0.034080
385.000000	0.034007
384.000000	0.033987
383.000000	0.033904
382.000000	0.033798
381.000000	0.033816
380.000000	0.034094
379.000000	0.033849
378.000000	0.033709
377.000000	0.033760
376.000000	0.033681
375.000000	0.033855
374.000000	0.033811
373.000000	0.033824
372.000000	0.033907
371.000000	0.033842
370.000000	0.033881
369.000000	0.033953
368.000000	0.033928
367.000000	0.034005
366.000000	0.033882
365.000000	0.033958
364.000000	0.033976
363.000000	0.034027
362.000000	0.033948
361.000000	0.033973
360.000000	0.034019
359.000000	0.034074
358.000000	0.034043
357.000000	0.034172
356.000000	0.034158
355.000000	0.034205
354.000000	0.034261
353.000000	0.034178
352.000000	0.034218
351.000000	0.034322
350.000000	0.034261
349.000000	0.034370
348.000000	0.034382
347.000000	0.034460
346.000000	0.034404
345.000000	0.034507
344.000000	0.034482
343.000000	0.034543
342.000000	0.034652
341.000000	0.034578
340.000000	0.034621
339.000000	0.034716
338.000000	0.034846
337.000000	0.034837
336.000000	0.034894
335.000000	0.034821
334.000000	0.034836
333.000000	0.034937
332.000000	0.034971
331.000000	0.035047
330.000000	0.035084
329.000000	0.035196
328.000000	0.035359
327.000000	0.035324
326.000000	0.035389
325.000000	0.035369
324.000000	0.035479
323.000000	0.035451
322.000000	0.035471
321.000000	0.035568
320.000000	0.035613
319.000000	0.035693
318.000000	0.034619
317.000000	0.032388
316.000000	0.032359
315.000000	0.032495
314.000000	0.032584
313.000000	0.032635
312.000000	0.032699
311.000000	0.032773
310.000000	0.032819
309.000000	0.032844
308.000000	0.032930
307.000000	0.032970
306.000000	0.033022
305.000000	0.033071
304.000000	0.033195
303.000000	0.033328
302.000000	0.033420
301.000000	0.033520
300.000000	0.033635
299.000000	0.033656
298.000000	0.033646
297.000000	0.033720
296.000000	0.033861
295.000000	0.034038
294.000000	0.034111
293.000000	0.034140
292.000000	0.034275
291.000000	0.034422
290.000000	0.034537
289.000000	0.034645
288.000000	0.034726
287.000000	0.034779
286.000000	0.034831
285.000000	0.034976
284.000000	0.035165
283.000000	0.035286
282.000000	0.035379
281.000000	0.035430
280.000000	0.035518
279.000000	0.035606
278.000000	0.035759
277.000000	0.035928
276.000000	0.036072
275.000000	0.036189
274.000000	0.036319
273.000000	0.036445
272.000000	0.036570
271.000000	0.036726
270.000000	0.036839
269.000000	0.036893
268.000000	0.037054
267.000000	0.037215
266.000000	0.037390
265.000000	0.037549
264.000000	0.037659
263.000000	0.037835
262.000000	0.038015
261.000000	0.038156
260.000000	0.038308
259.000000	0.038443
258.000000	0.038567
257.000000	0.038766
256.000000	0.038981
255.000000	0.039138
254.000000	0.039359
253.000000	0.039553
252.000000	0.039699
251.000000	0.039823
250.000000	0.040065
249.000000	0.040253
248.000000	0.040527
247.000000	0.040809
246.000000	0.041055
245.000000	0.041288
244.000000	0.041475
243.000000	0.041826
242.000000	0.042156
241.000000	0.042397
240.000000	0.042595
239.000000	0.042824
238.000000	0.043150
237.000000	0.043438
236.000000	0.043673
235.000000	0.043953
234.000000	0.044251
233.000000	0.044543
232.000000	0.044804
231.000000	0.045201
230.000000	0.045548
229.000000	0.045867
228.000000	0.046159
227.000000	0.046433
226.000000	0.046766
225.000000	0.047210
224.000000	0.047622
223.000000	0.048101
222.000000	0.048500
221.000000	0.048866
220.000000	0.049452
219.000000	0.050090
218.000000	0.050739
217.000000	0.051428
216.000000	0.052269
215.000000	0.053014
214.000000	0.053801
213.000000	0.054850
212.000000	0.055937
211.000000	0.057246
210.000000	0.058467
209.000000	0.059745
208.000000	0.061352
207.000000	0.063171
206.000000	0.065279
205.000000	0.067514
204.000000	0.069969
203.000000	0.072635
202.000000	0.075698
201.000000	0.079341
200.000000	0.083247
