PE UV       SUBTECH     SPECTRUM    ASCII       PEDS        4.00        	
-1	
Ki203a040810.Sample.Raw.asc	
10.8.2020	
11:07:06.00	
10.8.2020	
11:07:06.00	
Hermanni Kaartokallio	
	
200.000000	
1	
Lambda 650	
650N8121101	
PerkinElmer UV WinLab 6.0.2.0723 / 1.61.00 Lambda 650	
	
0	
0	
2	
0	
0	
UV/VIS	
1	
1	
1	
uv/vis/nir detector	
0	
0	
0	
0	
Fix	
 	
0	
0.24	
0	
0	
0	
 	
 	
 	
0	
 	
0	
319.2	
0	
Front	
100	
 	
 	
 	
0	
0	
0	
 	
0	
 	
 	
 	
0	
 	
 	
0	
0	
0	
0	
0	
 	
 	
 	
 	
0	
0	
#HDR	
-1	
-1	
#GR	
nm	
A	
1.0	
0.0	
800.000000	
-1.000000	
601	
8	
3.623499	
0.036574	
#DATA	
800.000000	0.079248
799.000000	0.079570
798.000000	0.080036
797.000000	0.080340
796.000000	0.080893
795.000000	0.081267
794.000000	0.081756
793.000000	0.082289
792.000000	0.082573
791.000000	0.082950
790.000000	0.083567
789.000000	0.084061
788.000000	0.084341
787.000000	0.084750
786.000000	0.085257
785.000000	0.085579
784.000000	0.085964
783.000000	0.086550
782.000000	0.086956
781.000000	0.087312
780.000000	0.087548
779.000000	0.088030
778.000000	0.088497
777.000000	0.088766
776.000000	0.089065
775.000000	0.089484
774.000000	0.089620
773.000000	0.089896
772.000000	0.090295
771.000000	0.090584
770.000000	0.090707
769.000000	0.090942
768.000000	0.091113
767.000000	0.091260
766.000000	0.091411
765.000000	0.091598
764.000000	0.091748
763.000000	0.091703
762.000000	0.091657
761.000000	0.091855
760.000000	0.091903
759.000000	0.091809
758.000000	0.091846
757.000000	0.091895
756.000000	0.091712
755.000000	0.091644
754.000000	0.091636
753.000000	0.091598
752.000000	0.091492
751.000000	0.091340
750.000000	0.091268
749.000000	0.091320
748.000000	0.091162
747.000000	0.091095
746.000000	0.091022
745.000000	0.090883
744.000000	0.090695
743.000000	0.090616
742.000000	0.090468
741.000000	0.089965
740.000000	0.089516
739.000000	0.088973
738.000000	0.088028
737.000000	0.086942
736.000000	0.085670
735.000000	0.083987
734.000000	0.081998
733.000000	0.079809
732.000000	0.077475
731.000000	0.075003
730.000000	0.072418
729.000000	0.070101
728.000000	0.068036
727.000000	0.066012
726.000000	0.064198
725.000000	0.062740
724.000000	0.061391
723.000000	0.059952
722.000000	0.058670
721.000000	0.057523
720.000000	0.056290
719.000000	0.055150
718.000000	0.054173
717.000000	0.053151
716.000000	0.052015
715.000000	0.050970
714.000000	0.050118
713.000000	0.049297
712.000000	0.048419
711.000000	0.047701
710.000000	0.047171
709.000000	0.046557
708.000000	0.045881
707.000000	0.045438
706.000000	0.045036
705.000000	0.044504
704.000000	0.044109
703.000000	0.043752
702.000000	0.043354
701.000000	0.042984
700.000000	0.042691
699.000000	0.042481
698.000000	0.042148
697.000000	0.041787
696.000000	0.041623
695.000000	0.041457
694.000000	0.041171
693.000000	0.041086
692.000000	0.041104
691.000000	0.040894
690.000000	0.040703
689.000000	0.040709
688.000000	0.040595
687.000000	0.040419
686.000000	0.040546
685.000000	0.040647
684.000000	0.040552
683.000000	0.040506
682.000000	0.040568
681.000000	0.040627
680.000000	0.040657
679.000000	0.040763
678.000000	0.040839
677.000000	0.040848
676.000000	0.040814
675.000000	0.040891
674.000000	0.041025
673.000000	0.040985
672.000000	0.040963
671.000000	0.041065
670.000000	0.041039
669.000000	0.040961
668.000000	0.041056
667.000000	0.041183
666.000000	0.041125
665.000000	0.040990
664.000000	0.041038
663.000000	0.041068
662.000000	0.041080
661.000000	0.041037
660.000000	0.041038
659.000000	0.040903
658.000000	0.040672
657.000000	0.040620
656.000000	0.040675
655.000000	0.040462
654.000000	0.040259
653.000000	0.040118
652.000000	0.039950
651.000000	0.039794
650.000000	0.039909
649.000000	0.040007
648.000000	0.039882
647.000000	0.039783
646.000000	0.039794
645.000000	0.039889
644.000000	0.039724
643.000000	0.039550
642.000000	0.039646
641.000000	0.039608
640.000000	0.039420
639.000000	0.039438
638.000000	0.039613
637.000000	0.039544
636.000000	0.039433
635.000000	0.039515
634.000000	0.039573
633.000000	0.039310
632.000000	0.039385
631.000000	0.039488
630.000000	0.039345
629.000000	0.039287
628.000000	0.039319
627.000000	0.039320
626.000000	0.039296
625.000000	0.039314
624.000000	0.039433
623.000000	0.039483
622.000000	0.039271
621.000000	0.039395
620.000000	0.039557
619.000000	0.039420
618.000000	0.039399
617.000000	0.039563
616.000000	0.039580
615.000000	0.039460
614.000000	0.039528
613.000000	0.039746
612.000000	0.039668
611.000000	0.039660
610.000000	0.039585
609.000000	0.039812
608.000000	0.039753
607.000000	0.039669
606.000000	0.039776
605.000000	0.039840
604.000000	0.039402
603.000000	0.039398
602.000000	0.039619
601.000000	0.039375
600.000000	0.039018
599.000000	0.038909
598.000000	0.038753
597.000000	0.038280
596.000000	0.038081
595.000000	0.038020
594.000000	0.037920
593.000000	0.037540
592.000000	0.037388
591.000000	0.037393
590.000000	0.037251
589.000000	0.037137
588.000000	0.037104
587.000000	0.037265
586.000000	0.036917
585.000000	0.036762
584.000000	0.036774
583.000000	0.036975
582.000000	0.036838
581.000000	0.036817
580.000000	0.036933
579.000000	0.036685
578.000000	0.036574
577.000000	0.036845
576.000000	0.036838
575.000000	0.036824
574.000000	0.036785
573.000000	0.036933
572.000000	0.036908
571.000000	0.036932
570.000000	0.037080
569.000000	0.037145
568.000000	0.037201
567.000000	0.037002
566.000000	0.037384
565.000000	0.037513
564.000000	0.037397
563.000000	0.037549
562.000000	0.037725
561.000000	0.037657
560.000000	0.037672
559.000000	0.037946
558.000000	0.038059
557.000000	0.038120
556.000000	0.038380
555.000000	0.038462
554.000000	0.038485
553.000000	0.038617
552.000000	0.038833
551.000000	0.038950
550.000000	0.039047
549.000000	0.039259
548.000000	0.039398
547.000000	0.039427
546.000000	0.039521
545.000000	0.039812
544.000000	0.040057
543.000000	0.040048
542.000000	0.040122
541.000000	0.040413
540.000000	0.040625
539.000000	0.040706
538.000000	0.040878
537.000000	0.041084
536.000000	0.041078
535.000000	0.041295
534.000000	0.041604
533.000000	0.041722
532.000000	0.041775
531.000000	0.041951
530.000000	0.042128
529.000000	0.042295
528.000000	0.042450
527.000000	0.042691
526.000000	0.042827
525.000000	0.042902
524.000000	0.043017
523.000000	0.043280
522.000000	0.043391
521.000000	0.043428
520.000000	0.043633
519.000000	0.043838
518.000000	0.043890
517.000000	0.043997
516.000000	0.044177
515.000000	0.044341
514.000000	0.044395
513.000000	0.044440
512.000000	0.044664
511.000000	0.044799
510.000000	0.044755
509.000000	0.044804
508.000000	0.044977
507.000000	0.044993
506.000000	0.045005
505.000000	0.045282
504.000000	0.045433
503.000000	0.045470
502.000000	0.045665
501.000000	0.045831
500.000000	0.045831
499.000000	0.045931
498.000000	0.046137
497.000000	0.046274
496.000000	0.046331
495.000000	0.046437
494.000000	0.046685
493.000000	0.046859
492.000000	0.046889
491.000000	0.047048
490.000000	0.047313
489.000000	0.047348
488.000000	0.047487
487.000000	0.047831
486.000000	0.047993
485.000000	0.048053
484.000000	0.048269
483.000000	0.048506
482.000000	0.048600
481.000000	0.048720
480.000000	0.048942
479.000000	0.049155
478.000000	0.049305
477.000000	0.049400
476.000000	0.049650
475.000000	0.049945
474.000000	0.050080
473.000000	0.050323
472.000000	0.050640
471.000000	0.050815
470.000000	0.051003
469.000000	0.051333
468.000000	0.051640
467.000000	0.051871
466.000000	0.052103
465.000000	0.052464
464.000000	0.052772
463.000000	0.053065
462.000000	0.053492
461.000000	0.053861
460.000000	0.054079
459.000000	0.054329
458.000000	0.054786
457.000000	0.055144
456.000000	0.055510
455.000000	0.055902
454.000000	0.056363
453.000000	0.056682
452.000000	0.056988
451.000000	0.057485
450.000000	0.057977
449.000000	0.058367
448.000000	0.058742
447.000000	0.059198
446.000000	0.059596
445.000000	0.060070
444.000000	0.060539
443.000000	0.061102
442.000000	0.061529
441.000000	0.061978
440.000000	0.062525
439.000000	0.063091
438.000000	0.063618
437.000000	0.064135
436.000000	0.064768
435.000000	0.065332
434.000000	0.065819
433.000000	0.066472
432.000000	0.067217
431.000000	0.067743
430.000000	0.068427
429.000000	0.069055
428.000000	0.069744
427.000000	0.070355
426.000000	0.071108
425.000000	0.071859
424.000000	0.072461
423.000000	0.073008
422.000000	0.073926
421.000000	0.074767
420.000000	0.075431
419.000000	0.076101
418.000000	0.076953
417.000000	0.077619
416.000000	0.078333
415.000000	0.079196
414.000000	0.080111
413.000000	0.080889
412.000000	0.081709
411.000000	0.082563
410.000000	0.083544
409.000000	0.084392
408.000000	0.085222
407.000000	0.086218
406.000000	0.087178
405.000000	0.088011
404.000000	0.089115
403.000000	0.090158
402.000000	0.091109
401.000000	0.092061
400.000000	0.093221
399.000000	0.094230
398.000000	0.095269
397.000000	0.096430
396.000000	0.097618
395.000000	0.098754
394.000000	0.099863
393.000000	0.101034
392.000000	0.102389
391.000000	0.103609
390.000000	0.104769
389.000000	0.106245
388.000000	0.107576
387.000000	0.108667
386.000000	0.110136
385.000000	0.111720
384.000000	0.113157
383.000000	0.114571
382.000000	0.116201
381.000000	0.117697
380.000000	0.119176
379.000000	0.120764
378.000000	0.122646
377.000000	0.124122
376.000000	0.125763
375.000000	0.127679
374.000000	0.129542
373.000000	0.131256
372.000000	0.132926
371.000000	0.134819
370.000000	0.136714
369.000000	0.138417
368.000000	0.140450
367.000000	0.142452
366.000000	0.144445
365.000000	0.146313
364.000000	0.148476
363.000000	0.150660
362.000000	0.152708
361.000000	0.154832
360.000000	0.157142
359.000000	0.159380
358.000000	0.161628
357.000000	0.164081
356.000000	0.166465
355.000000	0.168799
354.000000	0.171151
353.000000	0.173702
352.000000	0.176301
351.000000	0.178796
350.000000	0.181421
349.000000	0.184175
348.000000	0.186748
347.000000	0.189239
346.000000	0.192218
345.000000	0.195092
344.000000	0.197851
343.000000	0.200779
342.000000	0.203930
341.000000	0.206852
340.000000	0.209830
339.000000	0.213022
338.000000	0.216189
337.000000	0.219426
336.000000	0.222694
335.000000	0.226214
334.000000	0.229792
333.000000	0.233242
332.000000	0.236839
331.000000	0.240691
330.000000	0.244388
329.000000	0.248139
328.000000	0.252082
327.000000	0.256103
326.000000	0.260138
325.000000	0.264232
324.000000	0.268487
323.000000	0.272693
322.000000	0.277068
321.000000	0.281545
320.000000	0.286248
319.000000	0.290810
318.000000	0.295356
317.000000	0.299941
316.000000	0.304687
315.000000	0.309836
314.000000	0.315016
313.000000	0.320155
312.000000	0.325335
311.000000	0.330677
310.000000	0.336024
309.000000	0.341562
308.000000	0.347410
307.000000	0.353445
306.000000	0.359291
305.000000	0.365121
304.000000	0.371450
303.000000	0.378077
302.000000	0.384580
301.000000	0.391245
300.000000	0.398164
299.000000	0.405155
298.000000	0.412268
297.000000	0.419680
296.000000	0.427314
295.000000	0.435051
294.000000	0.442978
293.000000	0.451127
292.000000	0.459572
291.000000	0.468176
290.000000	0.476912
289.000000	0.485909
288.000000	0.494976
287.000000	0.504029
286.000000	0.513412
285.000000	0.522989
284.000000	0.532518
283.000000	0.542144
282.000000	0.551942
281.000000	0.561579
280.000000	0.571284
279.000000	0.581243
278.000000	0.591226
277.000000	0.601075
276.000000	0.611027
275.000000	0.621199
274.000000	0.631468
273.000000	0.641637
272.000000	0.651758
271.000000	0.661897
270.000000	0.671763
269.000000	0.681286
268.000000	0.690829
267.000000	0.700422
266.000000	0.709559
265.000000	0.718282
264.000000	0.726949
263.000000	0.735315
262.000000	0.743246
261.000000	0.751167
260.000000	0.758818
259.000000	0.765913
258.000000	0.772711
257.000000	0.779399
256.000000	0.785934
255.000000	0.792350
254.000000	0.798584
253.000000	0.804979
252.000000	0.811315
251.000000	0.817354
250.000000	0.823904
249.000000	0.830784
248.000000	0.837794
247.000000	0.845002
246.000000	0.852836
245.000000	0.861068
244.000000	0.869873
243.000000	0.879448
242.000000	0.889714
241.000000	0.900503
240.000000	0.911593
239.000000	0.923326
238.000000	0.935810
237.000000	0.948687
236.000000	0.962364
235.000000	0.976844
234.000000	0.991746
233.000000	1.006846
232.000000	1.022914
231.000000	1.039662
230.000000	1.056438
229.000000	1.073371
228.000000	1.090855
227.000000	1.108802
226.000000	1.127453
225.000000	1.147307
224.000000	1.168186
223.000000	1.190476
222.000000	1.214305
221.000000	1.239978
220.000000	1.269100
219.000000	1.301870
218.000000	1.338750
217.000000	1.382226
216.000000	1.432250
215.000000	1.489990
214.000000	1.558616
213.000000	1.640268
212.000000	1.735199
211.000000	1.845211
210.000000	1.972783
209.000000	2.118535
208.000000	2.287352
207.000000	2.478625
206.000000	2.698077
205.000000	2.938529
204.000000	3.166538
203.000000	3.358690
202.000000	3.515186
201.000000	3.620730
200.000000	3.623499
