PE UV       SUBTECH     SPECTRUM    ASCII       PEDS        4.00        	
-1	
Ki201b040810.Sample.Raw.asc	
10.8.2020	
10:50:41.00	
10.8.2020	
10:50:41.00	
Hermanni Kaartokallio	
	
200.000000	
1	
Lambda 650	
650N8121101	
PerkinElmer UV WinLab 6.0.2.0723 / 1.61.00 Lambda 650	
	
0	
0	
2	
0	
0	
UV/VIS	
1	
1	
1	
uv/vis/nir detector	
0	
0	
0	
0	
Fix	
 	
0	
0.24	
0	
0	
0	
 	
 	
 	
0	
 	
0	
319.2	
0	
Front	
100	
 	
 	
 	
0	
0	
0	
 	
0	
 	
 	
 	
0	
 	
 	
0	
0	
0	
0	
0	
 	
 	
 	
 	
0	
0	
#HDR	
-1	
-1	
#GR	
nm	
A	
1.0	
0.0	
800.000000	
-1.000000	
601	
8	
3.660601	
0.038359	
#DATA	
800.000000	0.082168
799.000000	0.082582
798.000000	0.082870
797.000000	0.083158
796.000000	0.083792
795.000000	0.084168
794.000000	0.084717
793.000000	0.085295
792.000000	0.085645
791.000000	0.086148
790.000000	0.086719
789.000000	0.087222
788.000000	0.087682
787.000000	0.088124
786.000000	0.088592
785.000000	0.089074
784.000000	0.089598
783.000000	0.090048
782.000000	0.090535
781.000000	0.091008
780.000000	0.091288
779.000000	0.091774
778.000000	0.092326
777.000000	0.092759
776.000000	0.093145
775.000000	0.093434
774.000000	0.093704
773.000000	0.093968
772.000000	0.094210
771.000000	0.094521
770.000000	0.094690
769.000000	0.094792
768.000000	0.094957
767.000000	0.095167
766.000000	0.095341
765.000000	0.095554
764.000000	0.095698
763.000000	0.095723
762.000000	0.095684
761.000000	0.095838
760.000000	0.095943
759.000000	0.095890
758.000000	0.095800
757.000000	0.095894
756.000000	0.095697
755.000000	0.095642
754.000000	0.095662
753.000000	0.095616
752.000000	0.095572
751.000000	0.095342
750.000000	0.095105
749.000000	0.095158
748.000000	0.094999
747.000000	0.094807
746.000000	0.094646
745.000000	0.094555
744.000000	0.094347
743.000000	0.094153
742.000000	0.093897
741.000000	0.093391
740.000000	0.092815
739.000000	0.092156
738.000000	0.091105
737.000000	0.089943
736.000000	0.088517
735.000000	0.086816
734.000000	0.084848
733.000000	0.082568
732.000000	0.080135
731.000000	0.077681
730.000000	0.075171
729.000000	0.072777
728.000000	0.070654
727.000000	0.068728
726.000000	0.066884
725.000000	0.065311
724.000000	0.063927
723.000000	0.062561
722.000000	0.061300
721.000000	0.060105
720.000000	0.058914
719.000000	0.057760
718.000000	0.056725
717.000000	0.055646
716.000000	0.054530
715.000000	0.053530
714.000000	0.052567
713.000000	0.051717
712.000000	0.050920
711.000000	0.050132
710.000000	0.049500
709.000000	0.048882
708.000000	0.048242
707.000000	0.047724
706.000000	0.047301
705.000000	0.046851
704.000000	0.046431
703.000000	0.046000
702.000000	0.045665
701.000000	0.045327
700.000000	0.044952
699.000000	0.044715
698.000000	0.044460
697.000000	0.044085
696.000000	0.043798
695.000000	0.043650
694.000000	0.043476
693.000000	0.043298
692.000000	0.043179
691.000000	0.043051
690.000000	0.042948
689.000000	0.042880
688.000000	0.042751
687.000000	0.042651
686.000000	0.042624
685.000000	0.042650
684.000000	0.042643
683.000000	0.042566
682.000000	0.042587
681.000000	0.042645
680.000000	0.042711
679.000000	0.042755
678.000000	0.042770
677.000000	0.042796
676.000000	0.042731
675.000000	0.042712
674.000000	0.042829
673.000000	0.042907
672.000000	0.042827
671.000000	0.042814
670.000000	0.042793
669.000000	0.042754
668.000000	0.042826
667.000000	0.042897
666.000000	0.042857
665.000000	0.042775
664.000000	0.042753
663.000000	0.042711
662.000000	0.042756
661.000000	0.042686
660.000000	0.042595
659.000000	0.042545
658.000000	0.042254
657.000000	0.042085
656.000000	0.042107
655.000000	0.041964
654.000000	0.041740
653.000000	0.041534
652.000000	0.041335
651.000000	0.041268
650.000000	0.041295
649.000000	0.041314
648.000000	0.041294
647.000000	0.041191
646.000000	0.041111
645.000000	0.041136
644.000000	0.041097
643.000000	0.040915
642.000000	0.040937
641.000000	0.040865
640.000000	0.040798
639.000000	0.040726
638.000000	0.040836
637.000000	0.040897
636.000000	0.040802
635.000000	0.040748
634.000000	0.040798
633.000000	0.040794
632.000000	0.040746
631.000000	0.040771
630.000000	0.040778
629.000000	0.040732
628.000000	0.040628
627.000000	0.040665
626.000000	0.040745
625.000000	0.040750
624.000000	0.040799
623.000000	0.040895
622.000000	0.040824
621.000000	0.040998
620.000000	0.040978
619.000000	0.040977
618.000000	0.041018
617.000000	0.041014
616.000000	0.041026
615.000000	0.041095
614.000000	0.041105
613.000000	0.041244
612.000000	0.041273
611.000000	0.041302
610.000000	0.041196
609.000000	0.041347
608.000000	0.041356
607.000000	0.041498
606.000000	0.041347
605.000000	0.041460
604.000000	0.041198
603.000000	0.041131
602.000000	0.041121
601.000000	0.040932
600.000000	0.040736
599.000000	0.040486
598.000000	0.040362
597.000000	0.040059
596.000000	0.039761
595.000000	0.039607
594.000000	0.039547
593.000000	0.039393
592.000000	0.039142
591.000000	0.039060
590.000000	0.038981
589.000000	0.038931
588.000000	0.038737
587.000000	0.038896
586.000000	0.038752
585.000000	0.038571
584.000000	0.038436
583.000000	0.038652
582.000000	0.038522
581.000000	0.038491
580.000000	0.038484
579.000000	0.038359
578.000000	0.038413
577.000000	0.038552
576.000000	0.038571
575.000000	0.038700
574.000000	0.038629
573.000000	0.038595
572.000000	0.038678
571.000000	0.038846
570.000000	0.038844
569.000000	0.038890
568.000000	0.039030
567.000000	0.038928
566.000000	0.039118
565.000000	0.039289
564.000000	0.039302
563.000000	0.039398
562.000000	0.039559
561.000000	0.039605
560.000000	0.039589
559.000000	0.039782
558.000000	0.040043
557.000000	0.040147
556.000000	0.040275
555.000000	0.040426
554.000000	0.040545
553.000000	0.040720
552.000000	0.040915
551.000000	0.041053
550.000000	0.041245
549.000000	0.041384
548.000000	0.041551
547.000000	0.041700
546.000000	0.041812
545.000000	0.042009
544.000000	0.042263
543.000000	0.042372
542.000000	0.042454
541.000000	0.042725
540.000000	0.042934
539.000000	0.043129
538.000000	0.043293
537.000000	0.043459
536.000000	0.043592
535.000000	0.043843
534.000000	0.044025
533.000000	0.044188
532.000000	0.044335
531.000000	0.044457
530.000000	0.044529
529.000000	0.044872
528.000000	0.045103
527.000000	0.045313
526.000000	0.045465
525.000000	0.045608
524.000000	0.045703
523.000000	0.045905
522.000000	0.046119
521.000000	0.046219
520.000000	0.046369
519.000000	0.046586
518.000000	0.046747
517.000000	0.046877
516.000000	0.047016
515.000000	0.047183
514.000000	0.047335
513.000000	0.047455
512.000000	0.047645
511.000000	0.047811
510.000000	0.047882
509.000000	0.047966
508.000000	0.048091
507.000000	0.048189
506.000000	0.048284
505.000000	0.048463
504.000000	0.048641
503.000000	0.048746
502.000000	0.048898
501.000000	0.049018
500.000000	0.049119
499.000000	0.049314
498.000000	0.049526
497.000000	0.049681
496.000000	0.049849
495.000000	0.049997
494.000000	0.050194
493.000000	0.050441
492.000000	0.050580
491.000000	0.050681
490.000000	0.050922
489.000000	0.051113
488.000000	0.051251
487.000000	0.051520
486.000000	0.051731
485.000000	0.051923
484.000000	0.052131
483.000000	0.052292
482.000000	0.052510
481.000000	0.052725
480.000000	0.052941
479.000000	0.053163
478.000000	0.053378
477.000000	0.053527
476.000000	0.053762
475.000000	0.054105
474.000000	0.054382
473.000000	0.054614
472.000000	0.054910
471.000000	0.055166
470.000000	0.055410
469.000000	0.055731
468.000000	0.056123
467.000000	0.056455
466.000000	0.056683
465.000000	0.057025
464.000000	0.057399
463.000000	0.057831
462.000000	0.058266
461.000000	0.058660
460.000000	0.059006
459.000000	0.059302
458.000000	0.059727
457.000000	0.060179
456.000000	0.060607
455.000000	0.061065
454.000000	0.061510
453.000000	0.061951
452.000000	0.062395
451.000000	0.062862
450.000000	0.063340
449.000000	0.063883
448.000000	0.064352
447.000000	0.064784
446.000000	0.065318
445.000000	0.065896
444.000000	0.066389
443.000000	0.067021
442.000000	0.067587
441.000000	0.068109
440.000000	0.068709
439.000000	0.069370
438.000000	0.070032
437.000000	0.070628
436.000000	0.071229
435.000000	0.071891
434.000000	0.072617
433.000000	0.073336
432.000000	0.074122
431.000000	0.074767
430.000000	0.075477
429.000000	0.076157
428.000000	0.076960
427.000000	0.077741
426.000000	0.078492
425.000000	0.079301
424.000000	0.080049
423.000000	0.080797
422.000000	0.081801
421.000000	0.082616
420.000000	0.083430
419.000000	0.084224
418.000000	0.085155
417.000000	0.085942
416.000000	0.086883
415.000000	0.087828
414.000000	0.088800
413.000000	0.089759
412.000000	0.090745
411.000000	0.091639
410.000000	0.092784
409.000000	0.093727
408.000000	0.094769
407.000000	0.095815
406.000000	0.096894
405.000000	0.097970
404.000000	0.099091
403.000000	0.100259
402.000000	0.101536
401.000000	0.102660
400.000000	0.103832
399.000000	0.105111
398.000000	0.106263
397.000000	0.107620
396.000000	0.108871
395.000000	0.110214
394.000000	0.111608
393.000000	0.112968
392.000000	0.114473
391.000000	0.115935
390.000000	0.117353
389.000000	0.118910
388.000000	0.120468
387.000000	0.121866
386.000000	0.123507
385.000000	0.125289
384.000000	0.126837
383.000000	0.128591
382.000000	0.130327
381.000000	0.132038
380.000000	0.133862
379.000000	0.135747
378.000000	0.137898
377.000000	0.139675
376.000000	0.141725
375.000000	0.143708
374.000000	0.145819
373.000000	0.147859
372.000000	0.149796
371.000000	0.151937
370.000000	0.154065
369.000000	0.156226
368.000000	0.158419
367.000000	0.160702
366.000000	0.162923
365.000000	0.165209
364.000000	0.167542
363.000000	0.170055
362.000000	0.172538
361.000000	0.175004
360.000000	0.177520
359.000000	0.180129
358.000000	0.182668
357.000000	0.185418
356.000000	0.188135
355.000000	0.190907
354.000000	0.193702
353.000000	0.196500
352.000000	0.199412
351.000000	0.202390
350.000000	0.205337
349.000000	0.208410
348.000000	0.211424
347.000000	0.214404
346.000000	0.217659
345.000000	0.220914
344.000000	0.224124
343.000000	0.227466
342.000000	0.230819
341.000000	0.234208
340.000000	0.237735
339.000000	0.241319
338.000000	0.244863
337.000000	0.248618
336.000000	0.252318
335.000000	0.256134
334.000000	0.260128
333.000000	0.264149
332.000000	0.268181
331.000000	0.272381
330.000000	0.276607
329.000000	0.280858
328.000000	0.285193
327.000000	0.289631
326.000000	0.294221
325.000000	0.298902
324.000000	0.303554
323.000000	0.308308
322.000000	0.313258
321.000000	0.318200
320.000000	0.323300
319.000000	0.328470
318.000000	0.333558
317.000000	0.338655
316.000000	0.344027
315.000000	0.349535
314.000000	0.355161
313.000000	0.360993
312.000000	0.366919
311.000000	0.372920
310.000000	0.379053
309.000000	0.385307
308.000000	0.391694
307.000000	0.398306
306.000000	0.404905
305.000000	0.411632
304.000000	0.418709
303.000000	0.425992
302.000000	0.433323
301.000000	0.440829
300.000000	0.448393
299.000000	0.456106
298.000000	0.464055
297.000000	0.472225
296.000000	0.480615
295.000000	0.489213
294.000000	0.498038
293.000000	0.506948
292.000000	0.516105
291.000000	0.525641
290.000000	0.535313
289.000000	0.545075
288.000000	0.555057
287.000000	0.565142
286.000000	0.575338
285.000000	0.585707
284.000000	0.596099
283.000000	0.606577
282.000000	0.617111
281.000000	0.627736
280.000000	0.638416
279.000000	0.649121
278.000000	0.659827
277.000000	0.670571
276.000000	0.681412
275.000000	0.692233
274.000000	0.703195
273.000000	0.714246
272.000000	0.725208
271.000000	0.735998
270.000000	0.746571
269.000000	0.756992
268.000000	0.767267
267.000000	0.777462
266.000000	0.787250
265.000000	0.796751
264.000000	0.806099
263.000000	0.814926
262.000000	0.823497
261.000000	0.831982
260.000000	0.840083
259.000000	0.847889
258.000000	0.855292
257.000000	0.862452
256.000000	0.869448
255.000000	0.876444
254.000000	0.883338
253.000000	0.890034
252.000000	0.896971
251.000000	0.903784
250.000000	0.910862
249.000000	0.918289
248.000000	0.925898
247.000000	0.933981
246.000000	0.942651
245.000000	0.951706
244.000000	0.961434
243.000000	0.971980
242.000000	0.983234
241.000000	0.995143
240.000000	1.007624
239.000000	1.020515
238.000000	1.034113
237.000000	1.048625
236.000000	1.063927
235.000000	1.079561
234.000000	1.095821
233.000000	1.112725
232.000000	1.130292
231.000000	1.148399
230.000000	1.166801
229.000000	1.185571
228.000000	1.204716
227.000000	1.224093
226.000000	1.244576
225.000000	1.265815
224.000000	1.288191
223.000000	1.311801
222.000000	1.337151
221.000000	1.364277
220.000000	1.394093
219.000000	1.427829
218.000000	1.466265
217.000000	1.509512
216.000000	1.559716
215.000000	1.617808
214.000000	1.686203
213.000000	1.766859
212.000000	1.859443
211.000000	1.968008
210.000000	2.091463
209.000000	2.230844
208.000000	2.392746
207.000000	2.583512
206.000000	2.790023
205.000000	3.012242
204.000000	3.234946
203.000000	3.479808
202.000000	3.538251
201.000000	3.660601
200.000000	3.617797
