PE UV       SUBTECH     SPECTRUM    ASCII       PEDS        4.00        
   -1
MQ2.Sample.Raw.asc
10/08/20
10:34:43.00
10/08/20
10:34:43.00
Hermanni Kaartokallio

200.000000
1
Lambda 650
650N8121101
PerkinElmer UV WinLab 6.0.2.0723 / 1.61.00 Lambda 650

0
0
2
0
0
UV/VIS
1
1
1
uv/vis/nir detector
0
0
0
0
Fix
 
0
0.24
0
0
0
 
 
 
0
 
0
319.2
0
Front
100
 
 
 
0
0
0
 
0
 
 
 
0
 
 
0
0
0
0
0
 
 
 
 
0
0
#HDR
-1
-1
#GR
nm
A
1.0
0.0
800.000000
-1.000000
601
8
0.138943
0.030903
#DATA
800.000000	0.078119
799.000000	0.078501
798.000000	0.078732
797.000000	0.079064
796.000000	0.079636
795.000000	0.079945
794.000000	0.080374
793.000000	0.080948
792.000000	0.081270
791.000000	0.081720
790.000000	0.082188
789.000000	0.082707
788.000000	0.083072
787.000000	0.083451
786.000000	0.083993
785.000000	0.084483
784.000000	0.084890
783.000000	0.085336
782.000000	0.085898
781.000000	0.086244
780.000000	0.086471
779.000000	0.086968
778.000000	0.087441
777.000000	0.087711
776.000000	0.087943
775.000000	0.088208
774.000000	0.088387
773.000000	0.088659
772.000000	0.088916
771.000000	0.089272
770.000000	0.089451
769.000000	0.089541
768.000000	0.089757
767.000000	0.089940
766.000000	0.090039
765.000000	0.090256
764.000000	0.090390
763.000000	0.090444
762.000000	0.090367
761.000000	0.090593
760.000000	0.090710
759.000000	0.090643
758.000000	0.090618
757.000000	0.090715
756.000000	0.090567
755.000000	0.090567
754.000000	0.090596
753.000000	0.090682
752.000000	0.090689
751.000000	0.090528
750.000000	0.090512
749.000000	0.090657
748.000000	0.090667
747.000000	0.090651
746.000000	0.090544
745.000000	0.090489
744.000000	0.090338
743.000000	0.090194
742.000000	0.090067
741.000000	0.089646
740.000000	0.089130
739.000000	0.088574
738.000000	0.087669
737.000000	0.086528
736.000000	0.085193
735.000000	0.083534
734.000000	0.081515
733.000000	0.079255
732.000000	0.076851
731.000000	0.074342
730.000000	0.071801
729.000000	0.069381
728.000000	0.067253
727.000000	0.065296
726.000000	0.063423
725.000000	0.061856
724.000000	0.060459
723.000000	0.059052
722.000000	0.057732
721.000000	0.056548
720.000000	0.055376
719.000000	0.054200
718.000000	0.053084
717.000000	0.052059
716.000000	0.050905
715.000000	0.049796
714.000000	0.048877
713.000000	0.048043
712.000000	0.047205
711.000000	0.046422
710.000000	0.045773
709.000000	0.045137
708.000000	0.044475
707.000000	0.043986
706.000000	0.043529
705.000000	0.042996
704.000000	0.042560
703.000000	0.042157
702.000000	0.041786
701.000000	0.041416
700.000000	0.041028
699.000000	0.040714
698.000000	0.040233
697.000000	0.039735
696.000000	0.039509
695.000000	0.039367
694.000000	0.039162
693.000000	0.038997
692.000000	0.038939
691.000000	0.038762
690.000000	0.038616
689.000000	0.038618
688.000000	0.038517
687.000000	0.038369
686.000000	0.038377
685.000000	0.038448
684.000000	0.038382
683.000000	0.038303
682.000000	0.038343
681.000000	0.038420
680.000000	0.038404
679.000000	0.038452
678.000000	0.038553
677.000000	0.038514
676.000000	0.038421
675.000000	0.038498
674.000000	0.038626
673.000000	0.038573
672.000000	0.038547
671.000000	0.038614
670.000000	0.038603
669.000000	0.038503
668.000000	0.038475
667.000000	0.038573
666.000000	0.038575
665.000000	0.038441
664.000000	0.038393
663.000000	0.038452
662.000000	0.038435
661.000000	0.038371
660.000000	0.038321
659.000000	0.038234
658.000000	0.037977
657.000000	0.037850
656.000000	0.037889
655.000000	0.037776
654.000000	0.037532
653.000000	0.037371
652.000000	0.037129
651.000000	0.037023
650.000000	0.036988
649.000000	0.037084
648.000000	0.036982
647.000000	0.036870
646.000000	0.036798
645.000000	0.036896
644.000000	0.036842
643.000000	0.036537
642.000000	0.036629
641.000000	0.036577
640.000000	0.036344
639.000000	0.036254
638.000000	0.036374
637.000000	0.036354
636.000000	0.036230
635.000000	0.036184
634.000000	0.036265
633.000000	0.036061
632.000000	0.036043
631.000000	0.036125
630.000000	0.036015
629.000000	0.035866
628.000000	0.035810
627.000000	0.035829
626.000000	0.035854
625.000000	0.035772
624.000000	0.035832
623.000000	0.035884
622.000000	0.035740
621.000000	0.035782
620.000000	0.035843
619.000000	0.035813
618.000000	0.035763
617.000000	0.035692
616.000000	0.035698
615.000000	0.035767
614.000000	0.035644
613.000000	0.035763
612.000000	0.035817
611.000000	0.035709
610.000000	0.035574
609.000000	0.035752
608.000000	0.035655
607.000000	0.035580
606.000000	0.035515
605.000000	0.035570
604.000000	0.035252
603.000000	0.035110
602.000000	0.035154
601.000000	0.034869
600.000000	0.034634
599.000000	0.034307
598.000000	0.034190
597.000000	0.033770
596.000000	0.033560
595.000000	0.033253
594.000000	0.033165
593.000000	0.032812
592.000000	0.032578
591.000000	0.032433
590.000000	0.032444
589.000000	0.032194
588.000000	0.032069
587.000000	0.032162
586.000000	0.031906
585.000000	0.031592
584.000000	0.031566
583.000000	0.031689
582.000000	0.031501
581.000000	0.031358
580.000000	0.031343
579.000000	0.031210
578.000000	0.031138
577.000000	0.031227
576.000000	0.031193
575.000000	0.031183
574.000000	0.031094
573.000000	0.031102
572.000000	0.031080
571.000000	0.031061
570.000000	0.031080
569.000000	0.031059
568.000000	0.031061
567.000000	0.030903
566.000000	0.031045
565.000000	0.031113
564.000000	0.031035
563.000000	0.031081
562.000000	0.031171
561.000000	0.031091
560.000000	0.031066
559.000000	0.031205
558.000000	0.031270
557.000000	0.031274
556.000000	0.031399
555.000000	0.031507
554.000000	0.031433
553.000000	0.031507
552.000000	0.031611
551.000000	0.031679
550.000000	0.031713
549.000000	0.031768
548.000000	0.031871
547.000000	0.031948
546.000000	0.031886
545.000000	0.032047
544.000000	0.032166
543.000000	0.032153
542.000000	0.032114
541.000000	0.032305
540.000000	0.032440
539.000000	0.032538
538.000000	0.032564
537.000000	0.032672
536.000000	0.032650
535.000000	0.032698
534.000000	0.032803
533.000000	0.032935
532.000000	0.032936
531.000000	0.032963
530.000000	0.033028
529.000000	0.033156
528.000000	0.033187
527.000000	0.033264
526.000000	0.033327
525.000000	0.033322
524.000000	0.033269
523.000000	0.033403
522.000000	0.033504
521.000000	0.033452
520.000000	0.033437
519.000000	0.033528
518.000000	0.033494
517.000000	0.033470
516.000000	0.033550
515.000000	0.033589
514.000000	0.033547
513.000000	0.033467
512.000000	0.033474
511.000000	0.033532
510.000000	0.033369
509.000000	0.033246
508.000000	0.033275
507.000000	0.033231
506.000000	0.033120
505.000000	0.033230
504.000000	0.033282
503.000000	0.033147
502.000000	0.033128
501.000000	0.033104
500.000000	0.032996
499.000000	0.032952
498.000000	0.032962
497.000000	0.032972
496.000000	0.032899
495.000000	0.032841
494.000000	0.032885
493.000000	0.032938
492.000000	0.032855
491.000000	0.032794
490.000000	0.032858
489.000000	0.032806
488.000000	0.032764
487.000000	0.032894
486.000000	0.032937
485.000000	0.032843
484.000000	0.032822
483.000000	0.032822
482.000000	0.032735
481.000000	0.032648
480.000000	0.032656
479.000000	0.032661
478.000000	0.032604
477.000000	0.032459
476.000000	0.032509
475.000000	0.032545
474.000000	0.032450
473.000000	0.032453
472.000000	0.032540
471.000000	0.032477
470.000000	0.032397
469.000000	0.032474
468.000000	0.032527
467.000000	0.032470
466.000000	0.032364
465.000000	0.032454
464.000000	0.032490
463.000000	0.032502
462.000000	0.032595
461.000000	0.032694
460.000000	0.032675
459.000000	0.032643
458.000000	0.032763
457.000000	0.032804
456.000000	0.032837
455.000000	0.032853
454.000000	0.032965
453.000000	0.032942
452.000000	0.032886
451.000000	0.032972
450.000000	0.033088
449.000000	0.033202
448.000000	0.033127
447.000000	0.033207
446.000000	0.033289
445.000000	0.033290
444.000000	0.033326
443.000000	0.033471
442.000000	0.033548
441.000000	0.033526
440.000000	0.033571
439.000000	0.033717
438.000000	0.033744
437.000000	0.033772
436.000000	0.033852
435.000000	0.033944
434.000000	0.033984
433.000000	0.034020
432.000000	0.034212
431.000000	0.034232
430.000000	0.034308
429.000000	0.034314
428.000000	0.034408
427.000000	0.034492
426.000000	0.034530
425.000000	0.034630
424.000000	0.034778
423.000000	0.034664
422.000000	0.034880
421.000000	0.034957
420.000000	0.035023
419.000000	0.034980
418.000000	0.035112
417.000000	0.035023
416.000000	0.035099
415.000000	0.035098
414.000000	0.035281
413.000000	0.035246
412.000000	0.035181
411.000000	0.035160
410.000000	0.035359
409.000000	0.035367
408.000000	0.035324
407.000000	0.035389
406.000000	0.035503
405.000000	0.035476
404.000000	0.035464
403.000000	0.035663
402.000000	0.035698
401.000000	0.035604
400.000000	0.035677
399.000000	0.035677
398.000000	0.035714
397.000000	0.035662
396.000000	0.035657
395.000000	0.035692
394.000000	0.035669
393.000000	0.035621
392.000000	0.035754
391.000000	0.035697
390.000000	0.035560
389.000000	0.035628
388.000000	0.035760
387.000000	0.035546
386.000000	0.035622
385.000000	0.035776
384.000000	0.035764
383.000000	0.035703
382.000000	0.035779
381.000000	0.035807
380.000000	0.035811
379.000000	0.035715
378.000000	0.035113
377.000000	0.035039
376.000000	0.035152
375.000000	0.035294
374.000000	0.035400
373.000000	0.035503
372.000000	0.035438
371.000000	0.035483
370.000000	0.035533
369.000000	0.035446
368.000000	0.035550
367.000000	0.035686
366.000000	0.035682
365.000000	0.035544
364.000000	0.035624
363.000000	0.035766
362.000000	0.035764
361.000000	0.035760
360.000000	0.036022
359.000000	0.035940
358.000000	0.035836
357.000000	0.035978
356.000000	0.036044
355.000000	0.035992
354.000000	0.036038
353.000000	0.036101
352.000000	0.036185
351.000000	0.036116
350.000000	0.036218
349.000000	0.036275
348.000000	0.036297
347.000000	0.036140
346.000000	0.036352
345.000000	0.036509
344.000000	0.036454
343.000000	0.036460
342.000000	0.036572
341.000000	0.036558
340.000000	0.036529
339.000000	0.036601
338.000000	0.036751
337.000000	0.036758
336.000000	0.036686
335.000000	0.036805
334.000000	0.036970
333.000000	0.036971
332.000000	0.036981
331.000000	0.037157
330.000000	0.037171
329.000000	0.037139
328.000000	0.037220
327.000000	0.037344
326.000000	0.037414
325.000000	0.037384
324.000000	0.037459
323.000000	0.037554
322.000000	0.037546
321.000000	0.037599
320.000000	0.037793
319.000000	0.037805
318.000000	0.037725
317.000000	0.037684
316.000000	0.037675
315.000000	0.037798
314.000000	0.037969
313.000000	0.038032
312.000000	0.038062
311.000000	0.038147
310.000000	0.038191
309.000000	0.038238
308.000000	0.038370
307.000000	0.038571
306.000000	0.038616
305.000000	0.038540
304.000000	0.038718
303.000000	0.038980
302.000000	0.039013
301.000000	0.039090
300.000000	0.039228
299.000000	0.039336
298.000000	0.039388
297.000000	0.039495
296.000000	0.039654
295.000000	0.039723
294.000000	0.039799
293.000000	0.039939
292.000000	0.040088
291.000000	0.040182
290.000000	0.040293
289.000000	0.040533
288.000000	0.040705
287.000000	0.040752
286.000000	0.040863
285.000000	0.041054
284.000000	0.041118
283.000000	0.041197
282.000000	0.041428
281.000000	0.041581
280.000000	0.041657
279.000000	0.041770
278.000000	0.041939
277.000000	0.042016
276.000000	0.042057
275.000000	0.042174
274.000000	0.042384
273.000000	0.042464
272.000000	0.042566
271.000000	0.042801
270.000000	0.042937
269.000000	0.042937
268.000000	0.043059
267.000000	0.043313
266.000000	0.043448
265.000000	0.043530
264.000000	0.043722
263.000000	0.043892
262.000000	0.043958
261.000000	0.044183
260.000000	0.044488
259.000000	0.044705
258.000000	0.044824
257.000000	0.045053
256.000000	0.045262
255.000000	0.045515
254.000000	0.045776
253.000000	0.046037
252.000000	0.046353
251.000000	0.046493
250.000000	0.046797
249.000000	0.047251
248.000000	0.047570
247.000000	0.047837
246.000000	0.048238
245.000000	0.048636
244.000000	0.048944
243.000000	0.049365
242.000000	0.050006
241.000000	0.050562
240.000000	0.050874
239.000000	0.051332
238.000000	0.051894
237.000000	0.052445
236.000000	0.052961
235.000000	0.053473
234.000000	0.053991
233.000000	0.054346
232.000000	0.054983
231.000000	0.055646
230.000000	0.056164
229.000000	0.056690
228.000000	0.057297
227.000000	0.057889
226.000000	0.058533
225.000000	0.059070
224.000000	0.059871
223.000000	0.060664
222.000000	0.061277
221.000000	0.061960
220.000000	0.062958
219.000000	0.063932
218.000000	0.064905
217.000000	0.066102
216.000000	0.067364
215.000000	0.068588
214.000000	0.070245
213.000000	0.072355
212.000000	0.074426
211.000000	0.076762
210.000000	0.079575
209.000000	0.082698
208.000000	0.086290
207.000000	0.090361
206.000000	0.094955
205.000000	0.100300
204.000000	0.106020
203.000000	0.112565
202.000000	0.120278
201.000000	0.129016
200.000000	0.138943
