PE UV       SUBTECH     SPECTRUM    ASCII       PEDS        4.00        
   -1
MQ42804_1.Sample.Raw.asc
11/04/28
10:47:28.00
11/04/28
10:47:28.00
Hermanni Kaartokallio

200.000000
1
Lambda 650
650N8121101
PerkinElmer UV WinLab 6.0.2.0723 / 1.61.00 Lambda 650

0
0
2
0
0
UV/VIS
1
1
1
uv/vis/nir detector
0
0
0
0
Fix
 
0
0.24
0
0
0
 
 
 
0
 
0
319.2
0
Front
100
 
 
 
0
0
0
 
0
 
 
 
0
 
 
0
0
0
0
0
 
 
 
 
0
0
#HDR
-1
-1
#GR
nm
A
1.0
0.0
800.000000
-1.000000
601
8
0.101352
0.036072
#DATA
800.000000	0.045234
799.000000	0.045224
798.000000	0.045335
797.000000	0.045371
796.000000	0.045077
795.000000	0.045150
794.000000	0.045385
793.000000	0.045367
792.000000	0.045309
791.000000	0.045593
790.000000	0.045800
789.000000	0.045956
788.000000	0.046116
787.000000	0.046352
786.000000	0.046573
785.000000	0.046660
784.000000	0.046967
783.000000	0.047182
782.000000	0.047117
781.000000	0.047231
780.000000	0.047175
779.000000	0.047445
778.000000	0.047558
777.000000	0.047568
776.000000	0.047675
775.000000	0.047652
774.000000	0.047579
773.000000	0.047650
772.000000	0.047658
771.000000	0.047706
770.000000	0.047709
769.000000	0.047830
768.000000	0.047868
767.000000	0.047840
766.000000	0.047867
765.000000	0.047944
764.000000	0.047990
763.000000	0.048059
762.000000	0.048124
761.000000	0.048196
760.000000	0.048207
759.000000	0.048222
758.000000	0.048230
757.000000	0.048269
756.000000	0.048195
755.000000	0.048268
754.000000	0.048181
753.000000	0.048005
752.000000	0.048086
751.000000	0.048045
750.000000	0.047936
749.000000	0.047780
748.000000	0.047825
747.000000	0.047834
746.000000	0.047625
745.000000	0.047430
744.000000	0.047402
743.000000	0.047315
742.000000	0.047173
741.000000	0.047066
740.000000	0.046988
739.000000	0.046742
738.000000	0.046486
737.000000	0.046183
736.000000	0.045836
735.000000	0.045437
734.000000	0.044967
733.000000	0.044382
732.000000	0.043819
731.000000	0.043277
730.000000	0.042836
729.000000	0.042341
728.000000	0.041927
727.000000	0.041604
726.000000	0.041233
725.000000	0.040968
724.000000	0.040762
723.000000	0.040615
722.000000	0.040444
721.000000	0.040177
720.000000	0.039918
719.000000	0.039808
718.000000	0.039748
717.000000	0.039548
716.000000	0.039365
715.000000	0.039149
714.000000	0.038902
713.000000	0.038815
712.000000	0.038665
711.000000	0.038463
710.000000	0.038226
709.000000	0.038070
708.000000	0.038008
707.000000	0.037889
706.000000	0.037742
705.000000	0.037693
704.000000	0.037616
703.000000	0.037471
702.000000	0.037376
701.000000	0.037393
700.000000	0.037436
699.000000	0.037460
698.000000	0.037460
697.000000	0.037418
696.000000	0.037383
695.000000	0.037416
694.000000	0.037506
693.000000	0.037525
692.000000	0.037512
691.000000	0.037500
690.000000	0.037546
689.000000	0.037555
688.000000	0.037507
687.000000	0.037507
686.000000	0.037509
685.000000	0.037450
684.000000	0.037437
683.000000	0.037505
682.000000	0.037527
681.000000	0.037515
680.000000	0.037440
679.000000	0.037225
678.000000	0.037046
677.000000	0.036973
676.000000	0.037020
675.000000	0.036898
674.000000	0.036759
673.000000	0.036719
672.000000	0.036601
671.000000	0.036471
670.000000	0.036355
669.000000	0.036289
668.000000	0.036367
667.000000	0.036297
666.000000	0.036210
665.000000	0.036142
664.000000	0.036072
663.000000	0.036092
662.000000	0.036166
661.000000	0.036222
660.000000	0.036284
659.000000	0.036230
658.000000	0.036170
657.000000	0.036211
656.000000	0.036214
655.000000	0.036234
654.000000	0.036279
653.000000	0.036319
652.000000	0.036402
651.000000	0.036441
650.000000	0.036489
649.000000	0.036570
648.000000	0.036628
647.000000	0.036702
646.000000	0.036705
645.000000	0.036708
644.000000	0.036795
643.000000	0.036840
642.000000	0.036898
641.000000	0.036812
640.000000	0.036790
639.000000	0.036810
638.000000	0.036812
637.000000	0.036871
636.000000	0.036810
635.000000	0.036829
634.000000	0.036690
633.000000	0.036723
632.000000	0.036858
631.000000	0.036946
630.000000	0.036970
629.000000	0.037126
628.000000	0.036737
627.000000	0.036706
626.000000	0.036800
625.000000	0.036793
624.000000	0.036884
623.000000	0.036919
622.000000	0.036919
621.000000	0.036951
620.000000	0.036969
619.000000	0.037050
618.000000	0.037056
617.000000	0.037081
616.000000	0.037078
615.000000	0.037093
614.000000	0.037191
613.000000	0.037266
612.000000	0.037289
611.000000	0.037347
610.000000	0.037404
609.000000	0.037338
608.000000	0.037413
607.000000	0.037463
606.000000	0.037503
605.000000	0.037420
604.000000	0.037393
603.000000	0.037442
602.000000	0.037379
601.000000	0.037544
600.000000	0.037280
599.000000	0.037293
598.000000	0.037204
597.000000	0.037161
596.000000	0.037126
595.000000	0.037109
594.000000	0.037063
593.000000	0.037023
592.000000	0.036997
591.000000	0.036989
590.000000	0.036886
589.000000	0.036928
588.000000	0.036964
587.000000	0.036954
586.000000	0.036966
585.000000	0.037013
584.000000	0.037052
583.000000	0.037137
582.000000	0.037052
581.000000	0.037150
580.000000	0.037195
579.000000	0.037030
578.000000	0.037055
577.000000	0.037016
576.000000	0.037134
575.000000	0.037072
574.000000	0.037034
573.000000	0.037031
572.000000	0.037163
571.000000	0.037376
570.000000	0.037263
569.000000	0.037203
568.000000	0.037184
567.000000	0.037276
566.000000	0.037203
565.000000	0.037261
564.000000	0.037363
563.000000	0.037250
562.000000	0.037269
561.000000	0.037170
560.000000	0.037146
559.000000	0.037181
558.000000	0.037044
557.000000	0.037020
556.000000	0.037049
555.000000	0.037132
554.000000	0.037039
553.000000	0.036889
552.000000	0.036916
551.000000	0.036944
550.000000	0.036843
549.000000	0.036801
548.000000	0.036739
547.000000	0.036616
546.000000	0.036661
545.000000	0.036740
544.000000	0.036632
543.000000	0.036568
542.000000	0.036483
541.000000	0.036488
540.000000	0.036509
539.000000	0.036504
538.000000	0.036543
537.000000	0.036567
536.000000	0.036575
535.000000	0.036556
534.000000	0.036629
533.000000	0.036589
532.000000	0.036516
531.000000	0.036407
530.000000	0.036413
529.000000	0.036440
528.000000	0.036542
527.000000	0.036556
526.000000	0.036611
525.000000	0.036642
524.000000	0.036594
523.000000	0.036600
522.000000	0.036685
521.000000	0.036703
520.000000	0.036741
519.000000	0.036880
518.000000	0.036852
517.000000	0.036716
516.000000	0.036762
515.000000	0.036865
514.000000	0.037014
513.000000	0.036979
512.000000	0.036830
511.000000	0.036803
510.000000	0.036857
509.000000	0.036884
508.000000	0.036890
507.000000	0.036829
506.000000	0.036786
505.000000	0.036786
504.000000	0.036858
503.000000	0.036908
502.000000	0.036916
501.000000	0.036864
500.000000	0.036843
499.000000	0.036825
498.000000	0.037001
497.000000	0.037098
496.000000	0.037065
495.000000	0.037087
494.000000	0.037041
493.000000	0.037137
492.000000	0.037252
491.000000	0.037286
490.000000	0.037325
489.000000	0.037346
488.000000	0.037380
487.000000	0.037545
486.000000	0.037658
485.000000	0.037607
484.000000	0.037556
483.000000	0.037556
482.000000	0.037564
481.000000	0.037662
480.000000	0.037804
479.000000	0.037943
478.000000	0.038041
477.000000	0.037935
476.000000	0.038004
475.000000	0.038159
474.000000	0.038120
473.000000	0.038102
472.000000	0.038223
471.000000	0.038133
470.000000	0.038007
469.000000	0.038102
468.000000	0.038174
467.000000	0.038127
466.000000	0.038131
465.000000	0.038179
464.000000	0.038166
463.000000	0.038242
462.000000	0.038236
461.000000	0.038203
460.000000	0.038289
459.000000	0.038281
458.000000	0.038302
457.000000	0.038369
456.000000	0.038423
455.000000	0.038306
454.000000	0.038184
453.000000	0.038202
452.000000	0.038179
451.000000	0.038210
450.000000	0.038239
449.000000	0.038245
448.000000	0.038181
447.000000	0.038177
446.000000	0.038180
445.000000	0.038138
444.000000	0.038113
443.000000	0.038135
442.000000	0.038067
441.000000	0.037990
440.000000	0.038003
439.000000	0.038064
438.000000	0.038013
437.000000	0.038012
436.000000	0.038016
435.000000	0.038213
434.000000	0.037880
433.000000	0.038003
432.000000	0.038048
431.000000	0.038035
430.000000	0.038034
429.000000	0.038117
428.000000	0.038102
427.000000	0.038165
426.000000	0.038063
425.000000	0.038132
424.000000	0.038038
423.000000	0.037960
422.000000	0.037892
421.000000	0.038004
420.000000	0.037986
419.000000	0.037982
418.000000	0.038071
417.000000	0.038033
416.000000	0.037956
415.000000	0.038007
414.000000	0.038084
413.000000	0.038070
412.000000	0.038064
411.000000	0.038004
410.000000	0.038037
409.000000	0.037982
408.000000	0.038110
407.000000	0.038252
406.000000	0.038254
405.000000	0.038202
404.000000	0.037947
403.000000	0.038127
402.000000	0.037968
401.000000	0.037996
400.000000	0.038168
399.000000	0.038059
398.000000	0.037950
397.000000	0.037991
396.000000	0.038043
395.000000	0.038126
394.000000	0.038102
393.000000	0.038040
392.000000	0.037986
391.000000	0.038211
390.000000	0.038111
389.000000	0.038426
388.000000	0.038351
387.000000	0.038338
386.000000	0.038244
385.000000	0.038409
384.000000	0.038460
383.000000	0.038434
382.000000	0.038610
381.000000	0.038530
380.000000	0.038582
379.000000	0.038689
378.000000	0.038938
377.000000	0.038948
376.000000	0.038809
375.000000	0.039042
374.000000	0.039126
373.000000	0.039085
372.000000	0.039297
371.000000	0.039524
370.000000	0.039455
369.000000	0.039484
368.000000	0.039515
367.000000	0.039605
366.000000	0.039705
365.000000	0.039442
364.000000	0.039813
363.000000	0.039994
362.000000	0.039878
361.000000	0.040005
360.000000	0.039985
359.000000	0.039919
358.000000	0.039943
357.000000	0.040115
356.000000	0.040236
355.000000	0.040131
354.000000	0.040207
353.000000	0.040282
352.000000	0.040143
351.000000	0.040220
350.000000	0.040319
349.000000	0.040367
348.000000	0.040383
347.000000	0.040373
346.000000	0.040500
345.000000	0.040719
344.000000	0.040701
343.000000	0.040838
342.000000	0.040928
341.000000	0.040757
340.000000	0.040493
339.000000	0.040654
338.000000	0.040838
337.000000	0.040798
336.000000	0.040778
335.000000	0.040763
334.000000	0.040755
333.000000	0.040834
332.000000	0.040911
331.000000	0.041138
330.000000	0.040980
329.000000	0.040825
328.000000	0.040946
327.000000	0.041085
326.000000	0.041131
325.000000	0.041128
324.000000	0.041301
323.000000	0.041229
322.000000	0.041119
321.000000	0.041336
320.000000	0.041381
319.000000	0.041445
318.000000	0.041570
317.000000	0.041844
316.000000	0.041816
315.000000	0.042052
314.000000	0.042213
313.000000	0.042176
312.000000	0.042228
311.000000	0.042401
310.000000	0.042443
309.000000	0.042500
308.000000	0.042720
307.000000	0.042849
306.000000	0.042875
305.000000	0.042831
304.000000	0.042940
303.000000	0.043058
302.000000	0.043068
301.000000	0.043245
300.000000	0.043346
299.000000	0.043343
298.000000	0.043438
297.000000	0.043664
296.000000	0.043817
295.000000	0.043851
294.000000	0.043888
293.000000	0.044111
292.000000	0.044334
291.000000	0.044355
290.000000	0.044435
289.000000	0.044662
288.000000	0.044720
287.000000	0.044775
286.000000	0.044913
285.000000	0.044973
284.000000	0.044984
283.000000	0.045178
282.000000	0.045403
281.000000	0.045431
280.000000	0.045437
279.000000	0.045610
278.000000	0.045799
277.000000	0.045893
276.000000	0.045996
275.000000	0.046145
274.000000	0.046297
273.000000	0.046328
272.000000	0.046444
271.000000	0.046637
270.000000	0.046736
269.000000	0.046776
268.000000	0.046995
267.000000	0.047207
266.000000	0.047247
265.000000	0.047328
264.000000	0.047541
263.000000	0.047588
262.000000	0.047585
261.000000	0.047883
260.000000	0.048120
259.000000	0.048176
258.000000	0.048252
257.000000	0.048384
256.000000	0.048597
255.000000	0.048741
254.000000	0.048993
253.000000	0.049243
252.000000	0.049373
251.000000	0.049545
250.000000	0.049727
249.000000	0.050065
248.000000	0.050298
247.000000	0.050530
246.000000	0.050804
245.000000	0.051109
244.000000	0.051335
243.000000	0.051699
242.000000	0.052074
241.000000	0.052392
240.000000	0.052657
239.000000	0.053025
238.000000	0.053433
237.000000	0.053787
236.000000	0.054179
235.000000	0.054685
234.000000	0.055065
233.000000	0.055427
232.000000	0.055915
231.000000	0.056498
230.000000	0.056851
229.000000	0.057329
228.000000	0.057833
227.000000	0.058318
226.000000	0.058841
225.000000	0.059351
224.000000	0.059887
223.000000	0.060375
222.000000	0.060921
221.000000	0.061636
220.000000	0.062499
219.000000	0.063115
218.000000	0.063894
217.000000	0.064813
216.000000	0.065785
215.000000	0.066753
214.000000	0.067815
213.000000	0.069144
212.000000	0.070505
211.000000	0.071872
210.000000	0.073681
209.000000	0.075468
208.000000	0.077102
207.000000	0.079288
206.000000	0.081718
205.000000	0.084445
204.000000	0.087109
203.000000	0.090068
202.000000	0.093613
201.000000	0.097456
200.000000	0.101352
