PE UV       SUBTECH     SPECTRUM    ASCII       PEDS        4.00        
   -1
TV4-01A_1.Sample.Raw.asc
11/04/28
09:56:16.00
11/04/28
09:56:16.00
Hermanni Kaartokallio

200.000000
1
Lambda 650
650N8121101
PerkinElmer UV WinLab 6.0.2.0723 / 1.61.00 Lambda 650

0
0
2
0
0
UV/VIS
1
1
1
uv/vis/nir detector
0
0
0
0
Fix
 
0
0.24
0
0
0
 
 
 
0
 
0
319.2
0
Front
100
 
 
 
0
0
0
 
0
 
 
 
0
 
 
0
0
0
0
0
 
 
 
 
0
0
#HDR
-1
-1
#GR
nm
A
1.0
0.0
800.000000
-1.000000
601
8
1.433524
0.035324
#DATA
800.000000	0.044406
799.000000	0.044380
798.000000	0.044439
797.000000	0.044324
796.000000	0.044223
795.000000	0.044359
794.000000	0.044529
793.000000	0.044596
792.000000	0.044565
791.000000	0.044907
790.000000	0.044987
789.000000	0.045172
788.000000	0.045417
787.000000	0.045552
786.000000	0.045607
785.000000	0.045885
784.000000	0.046149
783.000000	0.046261
782.000000	0.046344
781.000000	0.046522
780.000000	0.046552
779.000000	0.046844
778.000000	0.046842
777.000000	0.046984
776.000000	0.047135
775.000000	0.046990
774.000000	0.046960
773.000000	0.047106
772.000000	0.047154
771.000000	0.047186
770.000000	0.047189
769.000000	0.047148
768.000000	0.047197
767.000000	0.047200
766.000000	0.047312
765.000000	0.047413
764.000000	0.047357
763.000000	0.047509
762.000000	0.047546
761.000000	0.047604
760.000000	0.047556
759.000000	0.047668
758.000000	0.047677
757.000000	0.047620
756.000000	0.047526
755.000000	0.047700
754.000000	0.047535
753.000000	0.047331
752.000000	0.047401
751.000000	0.047276
750.000000	0.047139
749.000000	0.047033
748.000000	0.047193
747.000000	0.047026
746.000000	0.046787
745.000000	0.046662
744.000000	0.046664
743.000000	0.046565
742.000000	0.046432
741.000000	0.046339
740.000000	0.046244
739.000000	0.045923
738.000000	0.045641
737.000000	0.045346
736.000000	0.045025
735.000000	0.044557
734.000000	0.044166
733.000000	0.043638
732.000000	0.042973
731.000000	0.042455
730.000000	0.042081
729.000000	0.041619
728.000000	0.041206
727.000000	0.040902
726.000000	0.040597
725.000000	0.040393
724.000000	0.040116
723.000000	0.039970
722.000000	0.039833
721.000000	0.039580
720.000000	0.039374
719.000000	0.039326
718.000000	0.039195
717.000000	0.038963
716.000000	0.038819
715.000000	0.038624
714.000000	0.038423
713.000000	0.038243
712.000000	0.038156
711.000000	0.038052
710.000000	0.037883
709.000000	0.037739
708.000000	0.037688
707.000000	0.037566
706.000000	0.037429
705.000000	0.037411
704.000000	0.037309
703.000000	0.037160
702.000000	0.037106
701.000000	0.037188
700.000000	0.037181
699.000000	0.037131
698.000000	0.037183
697.000000	0.037181
696.000000	0.037085
695.000000	0.037129
694.000000	0.037249
693.000000	0.037259
692.000000	0.037227
691.000000	0.037217
690.000000	0.037262
689.000000	0.037265
688.000000	0.037184
687.000000	0.037121
686.000000	0.037102
685.000000	0.037063
684.000000	0.037013
683.000000	0.036995
682.000000	0.036846
681.000000	0.036751
680.000000	0.036749
679.000000	0.036638
678.000000	0.036461
677.000000	0.036364
676.000000	0.036309
675.000000	0.036175
674.000000	0.036100
673.000000	0.036068
672.000000	0.035966
671.000000	0.035811
670.000000	0.035715
669.000000	0.035720
668.000000	0.035674
667.000000	0.035552
666.000000	0.035573
665.000000	0.035587
664.000000	0.035496
663.000000	0.035494
662.000000	0.035490
661.000000	0.035452
660.000000	0.035425
659.000000	0.035421
658.000000	0.035381
657.000000	0.035324
656.000000	0.035329
655.000000	0.035411
654.000000	0.035465
653.000000	0.035469
652.000000	0.035562
651.000000	0.035694
650.000000	0.035806
649.000000	0.035845
648.000000	0.035958
647.000000	0.036027
646.000000	0.035984
645.000000	0.036016
644.000000	0.036267
643.000000	0.036189
642.000000	0.036160
641.000000	0.036140
640.000000	0.036276
639.000000	0.036200
638.000000	0.036202
637.000000	0.036496
636.000000	0.036392
635.000000	0.036326
634.000000	0.036292
633.000000	0.036330
632.000000	0.036398
631.000000	0.036444
630.000000	0.036451
629.000000	0.036508
628.000000	0.036443
627.000000	0.036483
626.000000	0.036691
625.000000	0.036705
624.000000	0.036736
623.000000	0.036796
622.000000	0.036866
621.000000	0.036934
620.000000	0.036986
619.000000	0.037119
618.000000	0.037191
617.000000	0.037193
616.000000	0.037194
615.000000	0.037294
614.000000	0.037430
613.000000	0.037420
612.000000	0.037467
611.000000	0.037564
610.000000	0.037616
609.000000	0.037546
608.000000	0.037683
607.000000	0.037716
606.000000	0.037691
605.000000	0.037646
604.000000	0.037697
603.000000	0.037704
602.000000	0.037646
601.000000	0.037705
600.000000	0.037644
599.000000	0.037558
598.000000	0.037556
597.000000	0.037644
596.000000	0.037619
595.000000	0.037503
594.000000	0.037558
593.000000	0.037550
592.000000	0.037485
591.000000	0.037455
590.000000	0.037466
589.000000	0.037556
588.000000	0.037587
587.000000	0.037588
586.000000	0.037728
585.000000	0.037708
584.000000	0.037707
583.000000	0.037663
582.000000	0.037816
581.000000	0.037854
580.000000	0.037809
579.000000	0.037857
578.000000	0.037933
577.000000	0.037987
576.000000	0.038039
575.000000	0.038100
574.000000	0.038169
573.000000	0.038130
572.000000	0.038292
571.000000	0.038451
570.000000	0.038417
569.000000	0.038440
568.000000	0.038489
567.000000	0.038567
566.000000	0.038586
565.000000	0.038696
564.000000	0.038698
563.000000	0.038715
562.000000	0.038682
561.000000	0.038758
560.000000	0.038678
559.000000	0.038739
558.000000	0.038774
557.000000	0.038774
556.000000	0.038756
555.000000	0.038778
554.000000	0.038768
553.000000	0.038817
552.000000	0.038834
551.000000	0.038832
550.000000	0.038906
549.000000	0.038889
548.000000	0.038780
547.000000	0.038849
546.000000	0.038882
545.000000	0.038943
544.000000	0.038933
543.000000	0.039000
542.000000	0.038914
541.000000	0.038896
540.000000	0.038961
539.000000	0.039026
538.000000	0.039043
537.000000	0.039051
536.000000	0.039115
535.000000	0.039216
534.000000	0.039228
533.000000	0.039231
532.000000	0.039298
531.000000	0.039259
530.000000	0.039268
529.000000	0.039496
528.000000	0.039635
527.000000	0.039604
526.000000	0.039673
525.000000	0.039748
524.000000	0.039770
523.000000	0.039852
522.000000	0.039997
521.000000	0.040169
520.000000	0.040175
519.000000	0.040190
518.000000	0.040304
517.000000	0.040397
516.000000	0.040468
515.000000	0.040563
514.000000	0.040653
513.000000	0.040679
512.000000	0.040688
511.000000	0.040847
510.000000	0.040964
509.000000	0.040939
508.000000	0.041007
507.000000	0.041103
506.000000	0.041156
505.000000	0.041245
504.000000	0.041378
503.000000	0.041467
502.000000	0.041482
501.000000	0.041543
500.000000	0.041624
499.000000	0.041769
498.000000	0.041863
497.000000	0.041927
496.000000	0.042081
495.000000	0.042194
494.000000	0.042247
493.000000	0.042363
492.000000	0.042504
491.000000	0.042542
490.000000	0.042652
489.000000	0.042831
488.000000	0.042945
487.000000	0.043071
486.000000	0.043247
485.000000	0.043409
484.000000	0.043511
483.000000	0.043601
482.000000	0.043773
481.000000	0.043954
480.000000	0.044061
479.000000	0.044224
478.000000	0.044423
477.000000	0.044513
476.000000	0.044676
475.000000	0.044898
474.000000	0.044998
473.000000	0.045096
472.000000	0.045296
471.000000	0.045449
470.000000	0.045643
469.000000	0.045786
468.000000	0.045974
467.000000	0.046196
466.000000	0.046273
465.000000	0.046335
464.000000	0.046597
463.000000	0.046840
462.000000	0.046983
461.000000	0.047119
460.000000	0.047346
459.000000	0.047500
458.000000	0.047606
457.000000	0.047853
456.000000	0.048085
455.000000	0.048187
454.000000	0.048308
453.000000	0.048531
452.000000	0.048630
451.000000	0.048793
450.000000	0.049052
449.000000	0.049305
448.000000	0.049434
447.000000	0.049567
446.000000	0.049800
445.000000	0.050053
444.000000	0.050151
443.000000	0.050355
442.000000	0.050615
441.000000	0.050709
440.000000	0.050856
439.000000	0.051144
438.000000	0.051418
437.000000	0.051606
436.000000	0.051788
435.000000	0.052021
434.000000	0.052224
433.000000	0.052490
432.000000	0.052788
431.000000	0.053030
430.000000	0.053333
429.000000	0.053434
428.000000	0.053772
427.000000	0.054172
426.000000	0.054381
425.000000	0.054652
424.000000	0.054956
423.000000	0.055240
422.000000	0.055457
421.000000	0.055879
420.000000	0.056307
419.000000	0.056610
418.000000	0.056858
417.000000	0.057178
416.000000	0.057614
415.000000	0.057837
414.000000	0.058209
413.000000	0.058620
412.000000	0.059017
411.000000	0.059245
410.000000	0.059784
409.000000	0.060171
408.000000	0.060503
407.000000	0.060944
406.000000	0.061346
405.000000	0.061628
404.000000	0.062054
403.000000	0.062515
402.000000	0.063003
401.000000	0.063396
400.000000	0.063856
399.000000	0.064368
398.000000	0.064872
397.000000	0.065330
396.000000	0.065722
395.000000	0.066388
394.000000	0.066861
393.000000	0.067386
392.000000	0.067869
391.000000	0.068636
390.000000	0.069170
389.000000	0.069642
388.000000	0.070296
387.000000	0.070879
386.000000	0.071498
385.000000	0.072113
384.000000	0.073009
383.000000	0.073595
382.000000	0.074257
381.000000	0.074917
380.000000	0.075741
379.000000	0.076473
378.000000	0.077358
377.000000	0.077942
376.000000	0.078765
375.000000	0.079402
374.000000	0.080412
373.000000	0.081183
372.000000	0.082019
371.000000	0.082917
370.000000	0.083838
369.000000	0.084606
368.000000	0.085489
367.000000	0.086346
366.000000	0.087357
365.000000	0.088058
364.000000	0.089076
363.000000	0.090087
362.000000	0.091058
361.000000	0.091932
360.000000	0.092844
359.000000	0.093856
358.000000	0.094923
357.000000	0.095840
356.000000	0.096954
355.000000	0.098046
354.000000	0.098984
353.000000	0.100035
352.000000	0.101067
351.000000	0.102224
350.000000	0.103319
349.000000	0.104427
348.000000	0.105606
347.000000	0.106720
346.000000	0.107843
345.000000	0.109112
344.000000	0.110278
343.000000	0.111453
342.000000	0.112675
341.000000	0.113815
340.000000	0.115150
339.000000	0.116352
338.000000	0.117680
337.000000	0.119023
336.000000	0.120270
335.000000	0.121512
334.000000	0.122991
333.000000	0.124314
332.000000	0.125640
331.000000	0.127125
330.000000	0.128642
329.000000	0.130033
328.000000	0.131430
327.000000	0.133002
326.000000	0.134597
325.000000	0.136070
324.000000	0.137610
323.000000	0.139277
322.000000	0.140937
321.000000	0.142560
320.000000	0.144297
319.000000	0.146056
318.000000	0.148092
317.000000	0.150631
316.000000	0.152350
315.000000	0.154238
314.000000	0.156193
313.000000	0.158110
312.000000	0.160049
311.000000	0.162041
310.000000	0.163992
309.000000	0.166128
308.000000	0.168177
307.000000	0.170312
306.000000	0.172524
305.000000	0.174599
304.000000	0.176748
303.000000	0.179141
302.000000	0.181424
301.000000	0.183773
300.000000	0.186144
299.000000	0.188530
298.000000	0.190966
297.000000	0.193562
296.000000	0.196170
295.000000	0.198788
294.000000	0.201378
293.000000	0.204169
292.000000	0.207057
291.000000	0.209882
290.000000	0.212722
289.000000	0.215704
288.000000	0.218636
287.000000	0.221443
286.000000	0.224296
285.000000	0.227223
284.000000	0.230215
283.000000	0.233218
282.000000	0.236198
281.000000	0.239166
280.000000	0.242160
279.000000	0.245180
278.000000	0.248232
277.000000	0.251254
276.000000	0.254251
275.000000	0.257267
274.000000	0.260442
273.000000	0.263564
272.000000	0.266546
271.000000	0.269587
270.000000	0.272690
269.000000	0.275578
268.000000	0.278548
267.000000	0.281634
266.000000	0.284515
265.000000	0.287266
264.000000	0.290057
263.000000	0.292795
262.000000	0.295431
261.000000	0.298109
260.000000	0.300714
259.000000	0.303303
258.000000	0.305812
257.000000	0.308153
256.000000	0.310739
255.000000	0.313296
254.000000	0.315813
253.000000	0.318451
252.000000	0.321118
251.000000	0.323828
250.000000	0.326602
249.000000	0.329723
248.000000	0.332847
247.000000	0.336121
246.000000	0.339758
245.000000	0.343715
244.000000	0.347879
243.000000	0.352261
242.000000	0.357000
241.000000	0.362186
240.000000	0.367735
239.000000	0.373629
238.000000	0.380113
237.000000	0.386999
236.000000	0.394553
235.000000	0.402932
234.000000	0.412159
233.000000	0.422366
232.000000	0.433667
231.000000	0.446189
230.000000	0.459870
229.000000	0.474773
228.000000	0.491186
227.000000	0.509374
226.000000	0.529368
225.000000	0.551145
224.000000	0.574857
223.000000	0.600662
222.000000	0.628218
221.000000	0.657566
220.000000	0.688526
219.000000	0.721095
218.000000	0.755178
217.000000	0.790295
216.000000	0.826357
215.000000	0.863228
214.000000	0.900423
213.000000	0.938143
212.000000	0.975527
211.000000	1.011927
210.000000	1.047790
209.000000	1.082528
208.000000	1.116657
207.000000	1.149793
206.000000	1.182984
205.000000	1.216294
204.000000	1.250781
203.000000	1.286389
202.000000	1.326834
201.000000	1.374564
200.000000	1.433524
