PE UV       SUBTECH     SPECTRUM    ASCII       PEDS        4.00        
   -1
TV4-04A_1.Sample.Raw.asc
11/04/28
10:22:39.00
11/04/28
10:22:39.00
Hermanni Kaartokallio

200.000000
1
Lambda 650
650N8121101
PerkinElmer UV WinLab 6.0.2.0723 / 1.61.00 Lambda 650

0
0
2
0
0
UV/VIS
1
1
1
uv/vis/nir detector
0
0
0
0
Fix
 
0
0.24
0
0
0
 
 
 
0
 
0
319.2
0
Front
100
 
 
 
0
0
0
 
0
 
 
 
0
 
 
0
0
0
0
0
 
 
 
 
0
0
#HDR
-1
-1
#GR
nm
A
1.0
0.0
800.000000
-1.000000
601
8
2.905465
0.034748
#DATA
800.000000	0.044480
799.000000	0.044584
798.000000	0.044580
797.000000	0.044399
796.000000	0.044449
795.000000	0.044579
794.000000	0.044602
793.000000	0.044668
792.000000	0.044726
791.000000	0.044960
790.000000	0.044953
789.000000	0.045288
788.000000	0.045541
787.000000	0.045565
786.000000	0.045719
785.000000	0.046001
784.000000	0.046283
783.000000	0.046245
782.000000	0.046393
781.000000	0.046649
780.000000	0.046621
779.000000	0.046643
778.000000	0.046825
777.000000	0.047012
776.000000	0.047109
775.000000	0.047110
774.000000	0.047088
773.000000	0.047106
772.000000	0.047111
771.000000	0.047140
770.000000	0.047132
769.000000	0.047132
768.000000	0.047234
767.000000	0.047229
766.000000	0.047321
765.000000	0.047303
764.000000	0.047255
763.000000	0.047494
762.000000	0.047429
761.000000	0.047382
760.000000	0.047532
759.000000	0.047633
758.000000	0.047549
757.000000	0.047542
756.000000	0.047488
755.000000	0.047608
754.000000	0.047422
753.000000	0.047297
752.000000	0.047395
751.000000	0.047190
750.000000	0.047082
749.000000	0.047033
748.000000	0.047103
747.000000	0.046994
746.000000	0.046755
745.000000	0.046662
744.000000	0.046630
743.000000	0.046434
742.000000	0.046284
741.000000	0.046261
740.000000	0.046106
739.000000	0.045745
738.000000	0.045531
737.000000	0.045233
736.000000	0.044842
735.000000	0.044417
734.000000	0.044006
733.000000	0.043448
732.000000	0.042764
731.000000	0.042316
730.000000	0.041961
729.000000	0.041425
728.000000	0.040987
727.000000	0.040739
726.000000	0.040401
725.000000	0.040043
724.000000	0.039843
723.000000	0.039738
722.000000	0.039534
721.000000	0.039228
720.000000	0.039038
719.000000	0.038984
718.000000	0.038818
717.000000	0.038633
716.000000	0.038502
715.000000	0.038230
714.000000	0.037988
713.000000	0.037870
712.000000	0.037771
711.000000	0.037609
710.000000	0.037417
709.000000	0.037332
708.000000	0.037271
707.000000	0.037112
706.000000	0.036982
705.000000	0.036949
704.000000	0.036825
703.000000	0.036640
702.000000	0.036601
701.000000	0.036649
700.000000	0.036644
699.000000	0.036627
698.000000	0.036671
697.000000	0.036641
696.000000	0.036538
695.000000	0.036551
694.000000	0.036676
693.000000	0.036711
692.000000	0.036657
691.000000	0.036690
690.000000	0.036725
689.000000	0.036636
688.000000	0.036597
687.000000	0.036613
686.000000	0.036524
685.000000	0.036468
684.000000	0.036473
683.000000	0.036383
682.000000	0.036199
681.000000	0.036154
680.000000	0.036161
679.000000	0.035997
678.000000	0.035820
677.000000	0.035750
676.000000	0.035723
675.000000	0.035542
674.000000	0.035410
673.000000	0.035406
672.000000	0.035247
671.000000	0.035121
670.000000	0.035091
669.000000	0.035075
668.000000	0.035023
667.000000	0.034916
666.000000	0.034912
665.000000	0.034865
664.000000	0.034787
663.000000	0.034748
662.000000	0.034850
661.000000	0.034844
660.000000	0.034780
659.000000	0.034890
658.000000	0.034887
657.000000	0.034840
656.000000	0.034882
655.000000	0.034932
654.000000	0.034999
653.000000	0.034965
652.000000	0.035068
651.000000	0.035188
650.000000	0.035202
649.000000	0.035222
648.000000	0.035292
647.000000	0.035367
646.000000	0.035305
645.000000	0.035340
644.000000	0.035442
643.000000	0.035450
642.000000	0.035492
641.000000	0.035531
640.000000	0.035540
639.000000	0.035445
638.000000	0.035430
637.000000	0.035529
636.000000	0.035480
635.000000	0.035473
634.000000	0.035467
633.000000	0.035414
632.000000	0.035473
631.000000	0.035484
630.000000	0.035523
629.000000	0.035582
628.000000	0.035466
627.000000	0.035534
626.000000	0.035722
625.000000	0.035740
624.000000	0.035767
623.000000	0.035921
622.000000	0.035990
621.000000	0.035966
620.000000	0.036070
619.000000	0.036144
618.000000	0.036089
617.000000	0.036084
616.000000	0.036192
615.000000	0.036144
614.000000	0.036206
613.000000	0.036225
612.000000	0.036322
611.000000	0.036366
610.000000	0.036430
609.000000	0.036369
608.000000	0.036508
607.000000	0.036571
606.000000	0.036505
605.000000	0.036440
604.000000	0.036735
603.000000	0.036460
602.000000	0.036409
601.000000	0.036490
600.000000	0.036447
599.000000	0.036316
598.000000	0.036271
597.000000	0.036238
596.000000	0.036177
595.000000	0.036145
594.000000	0.036191
593.000000	0.036129
592.000000	0.036049
591.000000	0.036002
590.000000	0.036061
589.000000	0.036092
588.000000	0.036095
587.000000	0.036103
586.000000	0.036232
585.000000	0.036138
584.000000	0.036102
583.000000	0.036013
582.000000	0.036128
581.000000	0.036132
580.000000	0.036089
579.000000	0.036171
578.000000	0.036176
577.000000	0.036096
576.000000	0.036221
575.000000	0.036283
574.000000	0.036237
573.000000	0.036213
572.000000	0.036378
571.000000	0.036479
570.000000	0.036374
569.000000	0.036374
568.000000	0.036389
567.000000	0.036418
566.000000	0.036350
565.000000	0.036462
564.000000	0.036455
563.000000	0.036375
562.000000	0.036333
561.000000	0.036393
560.000000	0.036296
559.000000	0.036274
558.000000	0.036271
557.000000	0.036223
556.000000	0.036106
555.000000	0.036126
554.000000	0.036068
553.000000	0.036062
552.000000	0.036015
551.000000	0.036012
550.000000	0.036013
549.000000	0.035914
548.000000	0.035823
547.000000	0.035859
546.000000	0.035862
545.000000	0.035819
544.000000	0.035775
543.000000	0.035851
542.000000	0.035726
541.000000	0.035722
540.000000	0.035759
539.000000	0.035759
538.000000	0.035713
537.000000	0.035703
536.000000	0.035741
535.000000	0.035777
534.000000	0.035786
533.000000	0.035757
532.000000	0.035800
531.000000	0.035840
530.000000	0.035852
529.000000	0.035970
528.000000	0.036029
527.000000	0.035985
526.000000	0.036052
525.000000	0.036106
524.000000	0.036123
523.000000	0.036139
522.000000	0.036196
521.000000	0.036306
520.000000	0.036341
519.000000	0.036329
518.000000	0.036358
517.000000	0.036370
516.000000	0.036375
515.000000	0.036488
514.000000	0.036564
513.000000	0.036517
512.000000	0.036448
511.000000	0.036525
510.000000	0.036574
509.000000	0.036536
508.000000	0.036541
507.000000	0.036589
506.000000	0.036601
505.000000	0.036567
504.000000	0.036624
503.000000	0.036689
502.000000	0.036667
501.000000	0.036638
500.000000	0.036708
499.000000	0.036776
498.000000	0.036756
497.000000	0.036796
496.000000	0.036910
495.000000	0.036960
494.000000	0.036941
493.000000	0.037068
492.000000	0.037199
491.000000	0.037191
490.000000	0.037289
489.000000	0.037419
488.000000	0.037470
487.000000	0.037552
486.000000	0.037664
485.000000	0.037745
484.000000	0.037782
483.000000	0.037817
482.000000	0.037924
481.000000	0.038024
480.000000	0.038013
479.000000	0.038038
478.000000	0.038161
477.000000	0.038164
476.000000	0.038227
475.000000	0.038358
474.000000	0.038419
473.000000	0.038377
472.000000	0.038481
471.000000	0.038509
470.000000	0.038457
469.000000	0.038401
468.000000	0.038459
467.000000	0.038574
466.000000	0.038560
465.000000	0.038557
464.000000	0.038696
463.000000	0.038741
462.000000	0.038720
461.000000	0.038781
460.000000	0.038907
459.000000	0.038911
458.000000	0.038882
457.000000	0.038907
456.000000	0.039019
455.000000	0.038974
454.000000	0.038938
453.000000	0.039092
452.000000	0.039022
451.000000	0.038998
450.000000	0.039144
449.000000	0.039307
448.000000	0.039198
447.000000	0.039166
446.000000	0.039252
445.000000	0.039314
444.000000	0.039293
443.000000	0.039308
442.000000	0.039440
441.000000	0.039409
440.000000	0.039361
439.000000	0.039458
438.000000	0.039580
437.000000	0.039563
436.000000	0.039540
435.000000	0.039653
434.000000	0.039646
433.000000	0.039733
432.000000	0.039842
431.000000	0.039956
430.000000	0.039992
429.000000	0.039866
428.000000	0.040059
427.000000	0.040215
426.000000	0.040236
425.000000	0.040305
424.000000	0.040406
423.000000	0.040470
422.000000	0.040418
421.000000	0.040648
420.000000	0.040758
419.000000	0.040762
418.000000	0.040840
417.000000	0.040931
416.000000	0.041069
415.000000	0.041085
414.000000	0.041125
413.000000	0.041297
412.000000	0.041376
411.000000	0.041337
410.000000	0.041575
409.000000	0.041707
408.000000	0.041749
407.000000	0.041816
406.000000	0.041986
405.000000	0.042009
404.000000	0.042028
403.000000	0.042176
402.000000	0.042324
401.000000	0.042358
400.000000	0.042458
399.000000	0.042596
398.000000	0.042719
397.000000	0.042824
396.000000	0.042934
395.000000	0.043158
394.000000	0.043227
393.000000	0.043272
392.000000	0.043382
391.000000	0.043786
390.000000	0.043875
389.000000	0.043882
388.000000	0.044234
387.000000	0.044401
386.000000	0.044422
385.000000	0.044616
384.000000	0.045084
383.000000	0.045097
382.000000	0.045270
381.000000	0.045567
380.000000	0.045890
379.000000	0.046037
378.000000	0.046332
377.000000	0.046507
376.000000	0.046657
375.000000	0.046799
374.000000	0.047279
373.000000	0.047365
372.000000	0.047635
371.000000	0.047985
370.000000	0.048213
369.000000	0.048371
368.000000	0.048919
367.000000	0.049108
366.000000	0.049323
365.000000	0.049521
364.000000	0.049828
363.000000	0.050195
362.000000	0.050410
361.000000	0.050683
360.000000	0.050902
359.000000	0.051171
358.000000	0.051581
357.000000	0.051865
356.000000	0.052155
355.000000	0.052536
354.000000	0.052801
353.000000	0.053037
352.000000	0.053368
351.000000	0.053711
350.000000	0.054027
349.000000	0.054238
348.000000	0.054682
347.000000	0.054990
346.000000	0.055277
345.000000	0.055771
344.000000	0.056077
343.000000	0.056376
342.000000	0.056760
341.000000	0.057128
340.000000	0.057490
339.000000	0.057783
338.000000	0.058266
337.000000	0.058726
336.000000	0.058994
335.000000	0.059337
334.000000	0.059881
333.000000	0.060239
332.000000	0.060578
331.000000	0.061059
330.000000	0.061566
329.000000	0.062016
328.000000	0.062546
327.000000	0.063156
326.000000	0.063771
325.000000	0.064155
324.000000	0.064685
323.000000	0.065183
322.000000	0.065764
321.000000	0.066315
320.000000	0.066917
319.000000	0.067525
318.000000	0.068422
317.000000	0.069660
316.000000	0.070204
315.000000	0.070984
314.000000	0.071702
313.000000	0.072383
312.000000	0.073114
311.000000	0.073857
310.000000	0.074628
309.000000	0.075475
308.000000	0.076314
307.000000	0.077203
306.000000	0.078092
305.000000	0.078884
304.000000	0.079707
303.000000	0.080689
302.000000	0.081637
301.000000	0.082633
300.000000	0.083661
299.000000	0.084773
298.000000	0.085883
297.000000	0.087018
296.000000	0.088160
295.000000	0.089428
294.000000	0.090630
293.000000	0.091919
292.000000	0.093302
291.000000	0.094617
290.000000	0.095989
289.000000	0.097445
288.000000	0.098860
287.000000	0.100219
286.000000	0.101622
285.000000	0.103076
284.000000	0.104570
283.000000	0.106090
282.000000	0.107534
281.000000	0.109014
280.000000	0.110510
279.000000	0.111985
278.000000	0.113490
277.000000	0.115081
276.000000	0.116605
275.000000	0.118041
274.000000	0.119644
273.000000	0.121211
272.000000	0.122713
271.000000	0.124225
270.000000	0.125795
269.000000	0.127224
268.000000	0.128708
267.000000	0.130264
266.000000	0.131695
265.000000	0.133130
264.000000	0.134510
263.000000	0.135876
262.000000	0.137189
261.000000	0.138570
260.000000	0.139879
259.000000	0.141164
258.000000	0.142320
257.000000	0.143497
256.000000	0.144758
255.000000	0.145942
254.000000	0.147180
253.000000	0.148432
252.000000	0.149739
251.000000	0.150965
250.000000	0.152204
249.000000	0.153618
248.000000	0.155017
247.000000	0.156487
246.000000	0.158058
245.000000	0.159847
244.000000	0.161608
243.000000	0.163399
242.000000	0.165388
241.000000	0.167471
240.000000	0.169724
239.000000	0.171966
238.000000	0.174330
237.000000	0.176948
236.000000	0.179513
235.000000	0.182332
234.000000	0.185367
233.000000	0.188340
232.000000	0.191559
231.000000	0.194772
230.000000	0.198089
229.000000	0.201559
228.000000	0.205148
227.000000	0.209009
226.000000	0.213207
225.000000	0.217895
224.000000	0.222992
223.000000	0.228876
222.000000	0.235541
221.000000	0.243361
220.000000	0.252912
219.000000	0.264461
218.000000	0.278657
217.000000	0.295995
216.000000	0.317703
215.000000	0.344647
214.000000	0.377793
213.000000	0.418609
212.000000	0.468599
211.000000	0.528899
210.000000	0.601329
209.000000	0.687282
208.000000	0.789108
207.000000	0.909603
206.000000	1.053492
205.000000	1.225007
204.000000	1.430421
203.000000	1.682183
202.000000	1.993757
201.000000	2.387230
200.000000	2.905465
