PE UV       SUBTECH     SPECTRUM    ASCII       PEDS        4.00        
   -1
TV4-000_1.Sample.Raw.asc
11/04/28
09:51:11.00
11/04/28
09:51:11.00
Hermanni Kaartokallio

200.000000
1
Lambda 650
650N8121101
PerkinElmer UV WinLab 6.0.2.0723 / 1.61.00 Lambda 650

0
0
2
0
0
UV/VIS
1
1
1
uv/vis/nir detector
0
0
0
0
Fix
 
0
0.24
0
0
0
 
 
 
0
 
0
319.2
0
Front
100
 
 
 
0
0
0
 
0
 
 
 
0
 
 
0
0
0
0
0
 
 
 
 
0
0
#HDR
-1
-1
#GR
nm
A
1.0
0.0
800.000000
-1.000000
601
8
1.090043
0.035194
#DATA
800.000000	0.044252
799.000000	0.044335
798.000000	0.044370
797.000000	0.044343
796.000000	0.044282
795.000000	0.044318
794.000000	0.044590
793.000000	0.044594
792.000000	0.044601
791.000000	0.044833
790.000000	0.044946
789.000000	0.045188
788.000000	0.045295
787.000000	0.045482
786.000000	0.045704
785.000000	0.045844
784.000000	0.046134
783.000000	0.046353
782.000000	0.046403
781.000000	0.046597
780.000000	0.046605
779.000000	0.046917
778.000000	0.046962
777.000000	0.047006
776.000000	0.047203
775.000000	0.047225
774.000000	0.047160
773.000000	0.047275
772.000000	0.047313
771.000000	0.047303
770.000000	0.047321
769.000000	0.047370
768.000000	0.047416
767.000000	0.047423
766.000000	0.047568
765.000000	0.047604
764.000000	0.047574
763.000000	0.047654
762.000000	0.047614
761.000000	0.047682
760.000000	0.047766
759.000000	0.047729
758.000000	0.047732
757.000000	0.047757
756.000000	0.047643
755.000000	0.047736
754.000000	0.047589
753.000000	0.047432
752.000000	0.047469
751.000000	0.047306
750.000000	0.047274
749.000000	0.047129
748.000000	0.047166
747.000000	0.047083
746.000000	0.046871
745.000000	0.046699
744.000000	0.046589
743.000000	0.046558
742.000000	0.046334
741.000000	0.046199
740.000000	0.046169
739.000000	0.045877
738.000000	0.045538
737.000000	0.045307
736.000000	0.045036
735.000000	0.044618
734.000000	0.044164
733.000000	0.043617
732.000000	0.042980
731.000000	0.042506
730.000000	0.042100
729.000000	0.041664
728.000000	0.041297
727.000000	0.040940
726.000000	0.040622
725.000000	0.040391
724.000000	0.040152
723.000000	0.039987
722.000000	0.039799
721.000000	0.039587
720.000000	0.039403
719.000000	0.039270
718.000000	0.039183
717.000000	0.038983
716.000000	0.038768
715.000000	0.038533
714.000000	0.038375
713.000000	0.038331
712.000000	0.038202
711.000000	0.038047
710.000000	0.037878
709.000000	0.037723
708.000000	0.037658
707.000000	0.037564
706.000000	0.037483
705.000000	0.037441
704.000000	0.037355
703.000000	0.037183
702.000000	0.037111
701.000000	0.037175
700.000000	0.037243
699.000000	0.037245
698.000000	0.037231
697.000000	0.037204
696.000000	0.037142
695.000000	0.037156
694.000000	0.037228
693.000000	0.037256
692.000000	0.037215
691.000000	0.037197
690.000000	0.037265
689.000000	0.037134
688.000000	0.036923
687.000000	0.036899
686.000000	0.036878
685.000000	0.036762
684.000000	0.036706
683.000000	0.036709
682.000000	0.036588
681.000000	0.036439
680.000000	0.036408
679.000000	0.036337
678.000000	0.036181
677.000000	0.036051
676.000000	0.035983
675.000000	0.035831
674.000000	0.035696
673.000000	0.035675
672.000000	0.035622
671.000000	0.035486
670.000000	0.035382
669.000000	0.035343
668.000000	0.035328
667.000000	0.035285
666.000000	0.035269
665.000000	0.035236
664.000000	0.035194
663.000000	0.035195
662.000000	0.035272
661.000000	0.035288
660.000000	0.035308
659.000000	0.035341
658.000000	0.035290
657.000000	0.035321
656.000000	0.035336
655.000000	0.035360
654.000000	0.035436
653.000000	0.035523
652.000000	0.035597
651.000000	0.035685
650.000000	0.035780
649.000000	0.035817
648.000000	0.035894
647.000000	0.035966
646.000000	0.035961
645.000000	0.035951
644.000000	0.036021
643.000000	0.036126
642.000000	0.036156
641.000000	0.036188
640.000000	0.036161
639.000000	0.036173
638.000000	0.036165
637.000000	0.036230
636.000000	0.036268
635.000000	0.036325
634.000000	0.036249
633.000000	0.036292
632.000000	0.036382
631.000000	0.036476
630.000000	0.036479
629.000000	0.036543
628.000000	0.036487
627.000000	0.036601
626.000000	0.036682
625.000000	0.036671
624.000000	0.036762
623.000000	0.036818
622.000000	0.036825
621.000000	0.036912
620.000000	0.037031
619.000000	0.037050
618.000000	0.037166
617.000000	0.037332
616.000000	0.037293
615.000000	0.037365
614.000000	0.037483
613.000000	0.037601
612.000000	0.037648
611.000000	0.037673
610.000000	0.037752
609.000000	0.037739
608.000000	0.037762
607.000000	0.037919
606.000000	0.037873
605.000000	0.037855
604.000000	0.037881
603.000000	0.037961
602.000000	0.037976
601.000000	0.037914
600.000000	0.037828
599.000000	0.037880
598.000000	0.037799
597.000000	0.037802
596.000000	0.037811
595.000000	0.037756
594.000000	0.037738
593.000000	0.037779
592.000000	0.037714
591.000000	0.037723
590.000000	0.037768
589.000000	0.037853
588.000000	0.037863
587.000000	0.037970
586.000000	0.037931
585.000000	0.037927
584.000000	0.037981
583.000000	0.037969
582.000000	0.038080
581.000000	0.038092
580.000000	0.038093
579.000000	0.038057
578.000000	0.038236
577.000000	0.038293
576.000000	0.038278
575.000000	0.038360
574.000000	0.038373
573.000000	0.038388
572.000000	0.038490
571.000000	0.038635
570.000000	0.038608
569.000000	0.038637
568.000000	0.038657
567.000000	0.038641
566.000000	0.038703
565.000000	0.038722
564.000000	0.038745
563.000000	0.038753
562.000000	0.038724
561.000000	0.038753
560.000000	0.038725
559.000000	0.038822
558.000000	0.038742
557.000000	0.038698
556.000000	0.038681
555.000000	0.038688
554.000000	0.038616
553.000000	0.038658
552.000000	0.038683
551.000000	0.038715
550.000000	0.038673
549.000000	0.038650
548.000000	0.038607
547.000000	0.038638
546.000000	0.038697
545.000000	0.038765
544.000000	0.038697
543.000000	0.038706
542.000000	0.038672
541.000000	0.038741
540.000000	0.038741
539.000000	0.038780
538.000000	0.038859
537.000000	0.038835
536.000000	0.038857
535.000000	0.038988
534.000000	0.039042
533.000000	0.039100
532.000000	0.039133
531.000000	0.039223
530.000000	0.039239
529.000000	0.039394
528.000000	0.039494
527.000000	0.039538
526.000000	0.039553
525.000000	0.039633
524.000000	0.039723
523.000000	0.039813
522.000000	0.039901
521.000000	0.039994
520.000000	0.040071
519.000000	0.040123
518.000000	0.040219
517.000000	0.040312
516.000000	0.040331
515.000000	0.040391
514.000000	0.040530
513.000000	0.040616
512.000000	0.040613
511.000000	0.040701
510.000000	0.040804
509.000000	0.040838
508.000000	0.040867
507.000000	0.040920
506.000000	0.041009
505.000000	0.041081
504.000000	0.041149
503.000000	0.041307
502.000000	0.041443
501.000000	0.041466
500.000000	0.041502
499.000000	0.041685
498.000000	0.041785
497.000000	0.041856
496.000000	0.041983
495.000000	0.042083
494.000000	0.042179
493.000000	0.042381
492.000000	0.042523
491.000000	0.042616
490.000000	0.042790
489.000000	0.042911
488.000000	0.043054
487.000000	0.043278
486.000000	0.043438
485.000000	0.043570
484.000000	0.043697
483.000000	0.043796
482.000000	0.043921
481.000000	0.044122
480.000000	0.044274
479.000000	0.044387
478.000000	0.044513
477.000000	0.044618
476.000000	0.044776
475.000000	0.044925
474.000000	0.045043
473.000000	0.045148
472.000000	0.045305
471.000000	0.045384
470.000000	0.045487
469.000000	0.045611
468.000000	0.045788
467.000000	0.045947
466.000000	0.046087
465.000000	0.046149
464.000000	0.046314
463.000000	0.046502
462.000000	0.046599
461.000000	0.046724
460.000000	0.046905
459.000000	0.047003
458.000000	0.047079
457.000000	0.047278
456.000000	0.047440
455.000000	0.047501
454.000000	0.047597
453.000000	0.047766
452.000000	0.047867
451.000000	0.047988
450.000000	0.048231
449.000000	0.048431
448.000000	0.048513
447.000000	0.048622
446.000000	0.048772
445.000000	0.049014
444.000000	0.049191
443.000000	0.049321
442.000000	0.049521
441.000000	0.049657
440.000000	0.049828
439.000000	0.050136
438.000000	0.050352
437.000000	0.050538
436.000000	0.050713
435.000000	0.050890
434.000000	0.051085
433.000000	0.051338
432.000000	0.051579
431.000000	0.051783
430.000000	0.052099
429.000000	0.052237
428.000000	0.052548
427.000000	0.052810
426.000000	0.053045
425.000000	0.053360
424.000000	0.053622
423.000000	0.053804
422.000000	0.054123
421.000000	0.054443
420.000000	0.054735
419.000000	0.055074
418.000000	0.055368
417.000000	0.055612
416.000000	0.055982
415.000000	0.056262
414.000000	0.056602
413.000000	0.056909
412.000000	0.057316
411.000000	0.057567
410.000000	0.057971
409.000000	0.058320
408.000000	0.058721
407.000000	0.059030
406.000000	0.059378
405.000000	0.059699
404.000000	0.060155
403.000000	0.060620
402.000000	0.061094
401.000000	0.061458
400.000000	0.061884
399.000000	0.062289
398.000000	0.062746
397.000000	0.063250
396.000000	0.063681
395.000000	0.064253
394.000000	0.064768
393.000000	0.065206
392.000000	0.065679
391.000000	0.066403
390.000000	0.066872
389.000000	0.067447
388.000000	0.068082
387.000000	0.068624
386.000000	0.069332
385.000000	0.069919
384.000000	0.070624
383.000000	0.071295
382.000000	0.071995
381.000000	0.072510
380.000000	0.073422
379.000000	0.074077
378.000000	0.074977
377.000000	0.075565
376.000000	0.076351
375.000000	0.077028
374.000000	0.077962
373.000000	0.078623
372.000000	0.079526
371.000000	0.080306
370.000000	0.081127
369.000000	0.081930
368.000000	0.082797
367.000000	0.083662
366.000000	0.084523
365.000000	0.085244
364.000000	0.086201
363.000000	0.087093
362.000000	0.088047
361.000000	0.088999
360.000000	0.089858
359.000000	0.090768
358.000000	0.091767
357.000000	0.092730
356.000000	0.093701
355.000000	0.094776
354.000000	0.095718
353.000000	0.096686
352.000000	0.097684
351.000000	0.098777
350.000000	0.099815
349.000000	0.100905
348.000000	0.102013
347.000000	0.103048
346.000000	0.104183
345.000000	0.105406
344.000000	0.106523
343.000000	0.107675
342.000000	0.108840
341.000000	0.109896
340.000000	0.111193
339.000000	0.112483
338.000000	0.113707
337.000000	0.114953
336.000000	0.116234
335.000000	0.117464
334.000000	0.118910
333.000000	0.120334
332.000000	0.121708
331.000000	0.123109
330.000000	0.124547
329.000000	0.125933
328.000000	0.127407
327.000000	0.128910
326.000000	0.130476
325.000000	0.131949
324.000000	0.133587
323.000000	0.135181
322.000000	0.136797
321.000000	0.138509
320.000000	0.140127
319.000000	0.141863
318.000000	0.143798
317.000000	0.146074
316.000000	0.147902
315.000000	0.149852
314.000000	0.151793
313.000000	0.153691
312.000000	0.155673
311.000000	0.157677
310.000000	0.159705
309.000000	0.161854
308.000000	0.163950
307.000000	0.166184
306.000000	0.168482
305.000000	0.170709
304.000000	0.173047
303.000000	0.175456
302.000000	0.177902
301.000000	0.180415
300.000000	0.182905
299.000000	0.185452
298.000000	0.188132
297.000000	0.190819
296.000000	0.193577
295.000000	0.196439
294.000000	0.199365
293.000000	0.202337
292.000000	0.205335
291.000000	0.208414
290.000000	0.211525
289.000000	0.214676
288.000000	0.217850
287.000000	0.221024
286.000000	0.224155
285.000000	0.227343
284.000000	0.230533
283.000000	0.233728
282.000000	0.236885
281.000000	0.240041
280.000000	0.243251
279.000000	0.246446
278.000000	0.249564
277.000000	0.252792
276.000000	0.256079
275.000000	0.259235
274.000000	0.262453
273.000000	0.265669
272.000000	0.268830
271.000000	0.271982
270.000000	0.275161
269.000000	0.278271
268.000000	0.281354
267.000000	0.284425
266.000000	0.287369
265.000000	0.290270
264.000000	0.293111
263.000000	0.295834
262.000000	0.298467
261.000000	0.301174
260.000000	0.303783
259.000000	0.306468
258.000000	0.309006
257.000000	0.311420
256.000000	0.314000
255.000000	0.316515
254.000000	0.319179
253.000000	0.321879
252.000000	0.324627
251.000000	0.327350
250.000000	0.330248
249.000000	0.333549
248.000000	0.336857
247.000000	0.340373
246.000000	0.344133
245.000000	0.348215
244.000000	0.352621
243.000000	0.357192
242.000000	0.362132
241.000000	0.367441
240.000000	0.373031
239.000000	0.378836
238.000000	0.385102
237.000000	0.391949
236.000000	0.399305
235.000000	0.407214
234.000000	0.415819
233.000000	0.425123
232.000000	0.435247
231.000000	0.446093
230.000000	0.457646
229.000000	0.470299
228.000000	0.483730
227.000000	0.498377
226.000000	0.514201
225.000000	0.531285
224.000000	0.549727
223.000000	0.569389
222.000000	0.590413
221.000000	0.612620
220.000000	0.636025
219.000000	0.660428
218.000000	0.685839
217.000000	0.711837
216.000000	0.738607
215.000000	0.765752
214.000000	0.793198
213.000000	0.820400
212.000000	0.847015
211.000000	0.873235
210.000000	0.898243
209.000000	0.922152
208.000000	0.945302
207.000000	0.967014
206.000000	0.987302
205.000000	1.006555
204.000000	1.024451
203.000000	1.041320
202.000000	1.057863
201.000000	1.074018
200.000000	1.090043
