PE UV       SUBTECH     SPECTRUM    ASCII       PEDS        4.00        
   -1
TV4-05B_1.Sample.Raw.asc
11/04/28
10:38:04.00
11/04/28
10:38:04.00
Hermanni Kaartokallio

200.000000
1
Lambda 650
650N8121101
PerkinElmer UV WinLab 6.0.2.0723 / 1.61.00 Lambda 650

0
0
2
0
0
UV/VIS
1
1
1
uv/vis/nir detector
0
0
0
0
Fix
 
0
0.24
0
0
0
 
 
 
0
 
0
319.2
0
Front
100
 
 
 
0
0
0
 
0
 
 
 
0
 
 
0
0
0
0
0
 
 
 
 
0
0
#HDR
-1
-1
#GR
nm
A
1.0
0.0
800.000000
-1.000000
601
8
3.112330
0.034828
#DATA
800.000000	0.044740
799.000000	0.044852
798.000000	0.044861
797.000000	0.044761
796.000000	0.044605
795.000000	0.044685
794.000000	0.044829
793.000000	0.044779
792.000000	0.044929
791.000000	0.045170
790.000000	0.045257
789.000000	0.045391
788.000000	0.045687
787.000000	0.045837
786.000000	0.045876
785.000000	0.046054
784.000000	0.046321
783.000000	0.046462
782.000000	0.046509
781.000000	0.046698
780.000000	0.046768
779.000000	0.046890
778.000000	0.047034
777.000000	0.047123
776.000000	0.047194
775.000000	0.047203
774.000000	0.047140
773.000000	0.047218
772.000000	0.047273
771.000000	0.047297
770.000000	0.047303
769.000000	0.047276
768.000000	0.047336
767.000000	0.047367
766.000000	0.047599
765.000000	0.047571
764.000000	0.047442
763.000000	0.047737
762.000000	0.047762
761.000000	0.047744
760.000000	0.047702
759.000000	0.047812
758.000000	0.047789
757.000000	0.047726
756.000000	0.047736
755.000000	0.047826
754.000000	0.047727
753.000000	0.047533
752.000000	0.047622
751.000000	0.047529
750.000000	0.047433
749.000000	0.047241
748.000000	0.047325
747.000000	0.047282
746.000000	0.047030
745.000000	0.046867
744.000000	0.046875
743.000000	0.046678
742.000000	0.046516
741.000000	0.046451
740.000000	0.046363
739.000000	0.046017
738.000000	0.045748
737.000000	0.045532
736.000000	0.045188
735.000000	0.044658
734.000000	0.044290
733.000000	0.043777
732.000000	0.043096
731.000000	0.042506
730.000000	0.042112
729.000000	0.041645
728.000000	0.041208
727.000000	0.040915
726.000000	0.040582
725.000000	0.040297
724.000000	0.040058
723.000000	0.039905
722.000000	0.039688
721.000000	0.039430
720.000000	0.039192
719.000000	0.039071
718.000000	0.038979
717.000000	0.038742
716.000000	0.038541
715.000000	0.038341
714.000000	0.038072
713.000000	0.037905
712.000000	0.037790
711.000000	0.037609
710.000000	0.037431
709.000000	0.037345
708.000000	0.037297
707.000000	0.037169
706.000000	0.037062
705.000000	0.037005
704.000000	0.036946
703.000000	0.036776
702.000000	0.036647
701.000000	0.036723
700.000000	0.036711
699.000000	0.036669
698.000000	0.036738
697.000000	0.036723
696.000000	0.036639
695.000000	0.036701
694.000000	0.036835
693.000000	0.036838
692.000000	0.036761
691.000000	0.036713
690.000000	0.036691
689.000000	0.036632
688.000000	0.036581
687.000000	0.036594
686.000000	0.036570
685.000000	0.036494
684.000000	0.036486
683.000000	0.036498
682.000000	0.036365
681.000000	0.036304
680.000000	0.036336
679.000000	0.036183
678.000000	0.035990
677.000000	0.035870
676.000000	0.035841
675.000000	0.035670
674.000000	0.035537
673.000000	0.035506
672.000000	0.035366
671.000000	0.035222
670.000000	0.035100
669.000000	0.035102
668.000000	0.035095
667.000000	0.034999
666.000000	0.034964
665.000000	0.034930
664.000000	0.034868
663.000000	0.034828
662.000000	0.035003
661.000000	0.035058
660.000000	0.035007
659.000000	0.034980
658.000000	0.034989
657.000000	0.034947
656.000000	0.034927
655.000000	0.034989
654.000000	0.035127
653.000000	0.035081
652.000000	0.035119
651.000000	0.035227
650.000000	0.035278
649.000000	0.035311
648.000000	0.035381
647.000000	0.035460
646.000000	0.035453
645.000000	0.035443
644.000000	0.035552
643.000000	0.035599
642.000000	0.035596
641.000000	0.035661
640.000000	0.035726
639.000000	0.035719
638.000000	0.035716
637.000000	0.035772
636.000000	0.035731
635.000000	0.035716
634.000000	0.035662
633.000000	0.035619
632.000000	0.035757
631.000000	0.035769
630.000000	0.035770
629.000000	0.035860
628.000000	0.035781
627.000000	0.035830
626.000000	0.035929
625.000000	0.035958
624.000000	0.035970
623.000000	0.035997
622.000000	0.036106
621.000000	0.036185
620.000000	0.036217
619.000000	0.036303
618.000000	0.036368
617.000000	0.036391
616.000000	0.036394
615.000000	0.036464
614.000000	0.036512
613.000000	0.036512
612.000000	0.036518
611.000000	0.036600
610.000000	0.036655
609.000000	0.036603
608.000000	0.036672
607.000000	0.036786
606.000000	0.036764
605.000000	0.036680
604.000000	0.036749
603.000000	0.036720
602.000000	0.036700
601.000000	0.036644
600.000000	0.036626
599.000000	0.036593
598.000000	0.036483
597.000000	0.036445
596.000000	0.036487
595.000000	0.036362
594.000000	0.036366
593.000000	0.036365
592.000000	0.036312
591.000000	0.036227
590.000000	0.036206
589.000000	0.036356
588.000000	0.036311
587.000000	0.036210
586.000000	0.036327
585.000000	0.036277
584.000000	0.036201
583.000000	0.036147
582.000000	0.036233
581.000000	0.036333
580.000000	0.036242
579.000000	0.036222
578.000000	0.036307
577.000000	0.036301
576.000000	0.036307
575.000000	0.036384
574.000000	0.036379
573.000000	0.036261
572.000000	0.036412
571.000000	0.036473
570.000000	0.036403
569.000000	0.036445
568.000000	0.036413
567.000000	0.036459
566.000000	0.036432
565.000000	0.036439
564.000000	0.036436
563.000000	0.036372
562.000000	0.036260
561.000000	0.036328
560.000000	0.036272
559.000000	0.036273
558.000000	0.036204
557.000000	0.036215
556.000000	0.036140
555.000000	0.036100
554.000000	0.036016
553.000000	0.035998
552.000000	0.036000
551.000000	0.035997
550.000000	0.035958
549.000000	0.035859
548.000000	0.035756
547.000000	0.035812
546.000000	0.035816
545.000000	0.035761
544.000000	0.035725
543.000000	0.035713
542.000000	0.035616
541.000000	0.035608
540.000000	0.035648
539.000000	0.035671
538.000000	0.035660
537.000000	0.035574
536.000000	0.035619
535.000000	0.035683
534.000000	0.035682
533.000000	0.035667
532.000000	0.035644
531.000000	0.035680
530.000000	0.035718
529.000000	0.035828
528.000000	0.035905
527.000000	0.035851
526.000000	0.035856
525.000000	0.035918
524.000000	0.035955
523.000000	0.035966
522.000000	0.036057
521.000000	0.036149
520.000000	0.036149
519.000000	0.036159
518.000000	0.036200
517.000000	0.036237
516.000000	0.036209
515.000000	0.036198
514.000000	0.036242
513.000000	0.036289
512.000000	0.036266
511.000000	0.036319
510.000000	0.036380
509.000000	0.036371
508.000000	0.036337
507.000000	0.036324
506.000000	0.036345
505.000000	0.036371
504.000000	0.036392
503.000000	0.036445
502.000000	0.036451
501.000000	0.036401
500.000000	0.036428
499.000000	0.036514
498.000000	0.036540
497.000000	0.036518
496.000000	0.036569
495.000000	0.036643
494.000000	0.036634
493.000000	0.036659
492.000000	0.036778
491.000000	0.036844
490.000000	0.036893
489.000000	0.036985
488.000000	0.037073
487.000000	0.037170
486.000000	0.037251
485.000000	0.037321
484.000000	0.037336
483.000000	0.037338
482.000000	0.037354
481.000000	0.037476
480.000000	0.037588
479.000000	0.037609
478.000000	0.037666
477.000000	0.037670
476.000000	0.037713
475.000000	0.037772
474.000000	0.037843
473.000000	0.037918
472.000000	0.037999
471.000000	0.037997
470.000000	0.037998
469.000000	0.037985
468.000000	0.038033
467.000000	0.038120
466.000000	0.038160
465.000000	0.038139
464.000000	0.038212
463.000000	0.038296
462.000000	0.038312
461.000000	0.038346
460.000000	0.038427
459.000000	0.038386
458.000000	0.038362
457.000000	0.038399
456.000000	0.038467
455.000000	0.038455
454.000000	0.038394
453.000000	0.038429
452.000000	0.038371
451.000000	0.038394
450.000000	0.038565
449.000000	0.038574
448.000000	0.038490
447.000000	0.038545
446.000000	0.038367
445.000000	0.038448
444.000000	0.038455
443.000000	0.038417
442.000000	0.038399
441.000000	0.038360
440.000000	0.038407
439.000000	0.038506
438.000000	0.038527
437.000000	0.038593
436.000000	0.038499
435.000000	0.038512
434.000000	0.038500
433.000000	0.038589
432.000000	0.038675
431.000000	0.038719
430.000000	0.038809
429.000000	0.038736
428.000000	0.038797
427.000000	0.038894
426.000000	0.038924
425.000000	0.039017
424.000000	0.039097
423.000000	0.039070
422.000000	0.039115
421.000000	0.039156
420.000000	0.039164
419.000000	0.039189
418.000000	0.039222
417.000000	0.039235
416.000000	0.039325
415.000000	0.039378
414.000000	0.039447
413.000000	0.039487
412.000000	0.039826
411.000000	0.039871
410.000000	0.039869
409.000000	0.039732
408.000000	0.039894
407.000000	0.039908
406.000000	0.039950
405.000000	0.040097
404.000000	0.040042
403.000000	0.040153
402.000000	0.040237
401.000000	0.040306
400.000000	0.040389
399.000000	0.040525
398.000000	0.040449
397.000000	0.040639
396.000000	0.040667
395.000000	0.040894
394.000000	0.041136
393.000000	0.041217
392.000000	0.041137
391.000000	0.041293
390.000000	0.041313
389.000000	0.041434
388.000000	0.041824
387.000000	0.041998
386.000000	0.042031
385.000000	0.042031
384.000000	0.042255
383.000000	0.042332
382.000000	0.042774
381.000000	0.042886
380.000000	0.043027
379.000000	0.043113
378.000000	0.043298
377.000000	0.043638
376.000000	0.043719
375.000000	0.043984
374.000000	0.043982
373.000000	0.044166
372.000000	0.044454
371.000000	0.044927
370.000000	0.044987
369.000000	0.045251
368.000000	0.045474
367.000000	0.045578
366.000000	0.045832
365.000000	0.046012
364.000000	0.046414
363.000000	0.046562
362.000000	0.046561
361.000000	0.046902
360.000000	0.047192
359.000000	0.047541
358.000000	0.047785
357.000000	0.048070
356.000000	0.048083
355.000000	0.048323
354.000000	0.048617
353.000000	0.049024
352.000000	0.049178
351.000000	0.049507
350.000000	0.049534
349.000000	0.049803
348.000000	0.050068
347.000000	0.050580
346.000000	0.050809
345.000000	0.051196
344.000000	0.051138
343.000000	0.051517
342.000000	0.051900
341.000000	0.052181
340.000000	0.052441
339.000000	0.052756
338.000000	0.053013
337.000000	0.053295
336.000000	0.053680
335.000000	0.054002
334.000000	0.054359
333.000000	0.054744
332.000000	0.054938
331.000000	0.055370
330.000000	0.055737
329.000000	0.056216
328.000000	0.056555
327.000000	0.057010
326.000000	0.057360
325.000000	0.057729
324.000000	0.058363
323.000000	0.058895
322.000000	0.059225
321.000000	0.059738
320.000000	0.060045
319.000000	0.060517
318.000000	0.061362
317.000000	0.062663
316.000000	0.063310
315.000000	0.063928
314.000000	0.064501
313.000000	0.064915
312.000000	0.065644
311.000000	0.066417
310.000000	0.067079
309.000000	0.067847
308.000000	0.068576
307.000000	0.069233
306.000000	0.070020
305.000000	0.070766
304.000000	0.071662
303.000000	0.072519
302.000000	0.073254
301.000000	0.074140
300.000000	0.075121
299.000000	0.076074
298.000000	0.077164
297.000000	0.078272
296.000000	0.079239
295.000000	0.080235
294.000000	0.081381
293.000000	0.082701
292.000000	0.083980
291.000000	0.085144
290.000000	0.086437
289.000000	0.087745
288.000000	0.088956
287.000000	0.090305
286.000000	0.091678
285.000000	0.092930
284.000000	0.094241
283.000000	0.095623
282.000000	0.096997
281.000000	0.098371
280.000000	0.099849
279.000000	0.101291
278.000000	0.102568
277.000000	0.103904
276.000000	0.105347
275.000000	0.106853
274.000000	0.108340
273.000000	0.109765
272.000000	0.111184
271.000000	0.112486
270.000000	0.113853
269.000000	0.115309
268.000000	0.116800
267.000000	0.118207
266.000000	0.119410
265.000000	0.120680
264.000000	0.122079
263.000000	0.123376
262.000000	0.124593
261.000000	0.125969
260.000000	0.127072
259.000000	0.128115
258.000000	0.129231
257.000000	0.130395
256.000000	0.131563
255.000000	0.132746
254.000000	0.133861
253.000000	0.134917
252.000000	0.136025
251.000000	0.137344
250.000000	0.138545
249.000000	0.139810
248.000000	0.140984
247.000000	0.142315
246.000000	0.143782
245.000000	0.145495
244.000000	0.147166
243.000000	0.148952
242.000000	0.150652
241.000000	0.152458
240.000000	0.154554
239.000000	0.156860
238.000000	0.159066
237.000000	0.161411
236.000000	0.163794
235.000000	0.166385
234.000000	0.169064
233.000000	0.172074
232.000000	0.175005
231.000000	0.178065
230.000000	0.181021
229.000000	0.184238
228.000000	0.187676
227.000000	0.191408
226.000000	0.195379
225.000000	0.199844
224.000000	0.204683
223.000000	0.210286
222.000000	0.216871
221.000000	0.225003
220.000000	0.234586
219.000000	0.246380
218.000000	0.260913
217.000000	0.279061
216.000000	0.301849
215.000000	0.330368
214.000000	0.365710
213.000000	0.409455
212.000000	0.462666
211.000000	0.527384
210.000000	0.605439
209.000000	0.698179
208.000000	0.807824
207.000000	0.938430
206.000000	1.093504
205.000000	1.278846
204.000000	1.501783
203.000000	1.776222
202.000000	2.114839
201.000000	2.543212
200.000000	3.112330
