PE UV       SUBTECH     SPECTRUM    ASCII       PEDS        4.00        
   -1
TV4-02A_1.Sample.Raw.asc
11/04/28
10:04:59.00
11/04/28
10:04:59.00
Hermanni Kaartokallio

200.000000
1
Lambda 650
650N8121101
PerkinElmer UV WinLab 6.0.2.0723 / 1.61.00 Lambda 650

0
0
2
0
0
UV/VIS
1
1
1
uv/vis/nir detector
0
0
0
0
Fix
 
0
0.24
0
0
0
 
 
 
0
 
0
319.2
0
Front
100
 
 
 
0
0
0
 
0
 
 
 
0
 
 
0
0
0
0
0
 
 
 
 
0
0
#HDR
-1
-1
#GR
nm
A
1.0
0.0
800.000000
-1.000000
601
8
1.530932
0.034616
#DATA
800.000000	0.044186
799.000000	0.044154
798.000000	0.044269
797.000000	0.043970
796.000000	0.044072
795.000000	0.044177
794.000000	0.044250
793.000000	0.044213
792.000000	0.044239
791.000000	0.044477
790.000000	0.044588
789.000000	0.044813
788.000000	0.045019
787.000000	0.045136
786.000000	0.045244
785.000000	0.045481
784.000000	0.045709
783.000000	0.045889
782.000000	0.045749
781.000000	0.045970
780.000000	0.045990
779.000000	0.046259
778.000000	0.046300
777.000000	0.046450
776.000000	0.046570
775.000000	0.046514
774.000000	0.046511
773.000000	0.046610
772.000000	0.046585
771.000000	0.046707
770.000000	0.046794
769.000000	0.046789
768.000000	0.046754
767.000000	0.046721
766.000000	0.046894
765.000000	0.046993
764.000000	0.046825
763.000000	0.046967
762.000000	0.047085
761.000000	0.047106
760.000000	0.047163
759.000000	0.047182
758.000000	0.047344
757.000000	0.047285
756.000000	0.047239
755.000000	0.047219
754.000000	0.047066
753.000000	0.046839
752.000000	0.046901
751.000000	0.046900
750.000000	0.046881
749.000000	0.046599
748.000000	0.046664
747.000000	0.046559
746.000000	0.046301
745.000000	0.046286
744.000000	0.046385
743.000000	0.046115
742.000000	0.045974
741.000000	0.045785
740.000000	0.045680
739.000000	0.045470
738.000000	0.045280
737.000000	0.044914
736.000000	0.044550
735.000000	0.043909
734.000000	0.043293
733.000000	0.042785
732.000000	0.042215
731.000000	0.041667
730.000000	0.041337
729.000000	0.040903
728.000000	0.040506
727.000000	0.040105
726.000000	0.039751
725.000000	0.039477
724.000000	0.039278
723.000000	0.039182
722.000000	0.039070
721.000000	0.038799
720.000000	0.038600
719.000000	0.038555
718.000000	0.038444
717.000000	0.038163
716.000000	0.037958
715.000000	0.037779
714.000000	0.037614
713.000000	0.037559
712.000000	0.037444
711.000000	0.037364
710.000000	0.037118
709.000000	0.036942
708.000000	0.036902
707.000000	0.036666
706.000000	0.036497
705.000000	0.036401
704.000000	0.036362
703.000000	0.036333
702.000000	0.036185
701.000000	0.036142
700.000000	0.036299
699.000000	0.036296
698.000000	0.036221
697.000000	0.036228
696.000000	0.036135
695.000000	0.036123
694.000000	0.036278
693.000000	0.036318
692.000000	0.036336
691.000000	0.036352
690.000000	0.036256
689.000000	0.036233
688.000000	0.036264
687.000000	0.036374
686.000000	0.036328
685.000000	0.036192
684.000000	0.036216
683.000000	0.036208
682.000000	0.035995
681.000000	0.035884
680.000000	0.035952
679.000000	0.035863
678.000000	0.035697
677.000000	0.035568
676.000000	0.035510
675.000000	0.035386
674.000000	0.035214
673.000000	0.035195
672.000000	0.035120
671.000000	0.035037
670.000000	0.034939
669.000000	0.034880
668.000000	0.034825
667.000000	0.034747
666.000000	0.034733
665.000000	0.034752
664.000000	0.034616
663.000000	0.034688
662.000000	0.034840
661.000000	0.034857
660.000000	0.034831
659.000000	0.034848
658.000000	0.034876
657.000000	0.034852
656.000000	0.034872
655.000000	0.034969
654.000000	0.035057
653.000000	0.035024
652.000000	0.035109
651.000000	0.035262
650.000000	0.035353
649.000000	0.035386
648.000000	0.035463
647.000000	0.035565
646.000000	0.035560
645.000000	0.035768
644.000000	0.035955
643.000000	0.036019
642.000000	0.036020
641.000000	0.036025
640.000000	0.036057
639.000000	0.036025
638.000000	0.035965
637.000000	0.036034
636.000000	0.036053
635.000000	0.036002
634.000000	0.036003
633.000000	0.036045
632.000000	0.036136
631.000000	0.036155
630.000000	0.036173
629.000000	0.036236
628.000000	0.036143
627.000000	0.036238
626.000000	0.036380
625.000000	0.036413
624.000000	0.036416
623.000000	0.036401
622.000000	0.036549
621.000000	0.036588
620.000000	0.036653
619.000000	0.036729
618.000000	0.036962
617.000000	0.036862
616.000000	0.036846
615.000000	0.036940
614.000000	0.037066
613.000000	0.037005
612.000000	0.037073
611.000000	0.037184
610.000000	0.037250
609.000000	0.037220
608.000000	0.037425
607.000000	0.037379
606.000000	0.037470
605.000000	0.037491
604.000000	0.037546
603.000000	0.037435
602.000000	0.037322
601.000000	0.037402
600.000000	0.037399
599.000000	0.037457
598.000000	0.037273
597.000000	0.037250
596.000000	0.037225
595.000000	0.037157
594.000000	0.037196
593.000000	0.037355
592.000000	0.037221
591.000000	0.037106
590.000000	0.037040
589.000000	0.037254
588.000000	0.037172
587.000000	0.037298
586.000000	0.037431
585.000000	0.037342
584.000000	0.037235
583.000000	0.037349
582.000000	0.037458
581.000000	0.037546
580.000000	0.037471
579.000000	0.037466
578.000000	0.037467
577.000000	0.037563
576.000000	0.037601
575.000000	0.037696
574.000000	0.037751
573.000000	0.037713
572.000000	0.037710
571.000000	0.037964
570.000000	0.037941
569.000000	0.037940
568.000000	0.038059
567.000000	0.038026
566.000000	0.037968
565.000000	0.038085
564.000000	0.038253
563.000000	0.038239
562.000000	0.038021
561.000000	0.038137
560.000000	0.038021
559.000000	0.038092
558.000000	0.038105
557.000000	0.038105
556.000000	0.038072
555.000000	0.038062
554.000000	0.037992
553.000000	0.038034
552.000000	0.038105
551.000000	0.038056
550.000000	0.038095
549.000000	0.038024
548.000000	0.037955
547.000000	0.037971
546.000000	0.038032
545.000000	0.038018
544.000000	0.037968
543.000000	0.038063
542.000000	0.038013
541.000000	0.038017
540.000000	0.038040
539.000000	0.038110
538.000000	0.038132
537.000000	0.038101
536.000000	0.038160
535.000000	0.038266
534.000000	0.038265
533.000000	0.038243
532.000000	0.038302
531.000000	0.038340
530.000000	0.038361
529.000000	0.038532
528.000000	0.038671
527.000000	0.038765
526.000000	0.038943
525.000000	0.038834
524.000000	0.038904
523.000000	0.038891
522.000000	0.039095
521.000000	0.039225
520.000000	0.039188
519.000000	0.039325
518.000000	0.039470
517.000000	0.039353
516.000000	0.039440
515.000000	0.039517
514.000000	0.039628
513.000000	0.039676
512.000000	0.039633
511.000000	0.039690
510.000000	0.039819
509.000000	0.039867
508.000000	0.039921
507.000000	0.040072
506.000000	0.040109
505.000000	0.040050
504.000000	0.040135
503.000000	0.040274
502.000000	0.040324
501.000000	0.040375
500.000000	0.040455
499.000000	0.040548
498.000000	0.040634
497.000000	0.040717
496.000000	0.040859
495.000000	0.041003
494.000000	0.041037
493.000000	0.041149
492.000000	0.041336
491.000000	0.041368
490.000000	0.041483
489.000000	0.041693
488.000000	0.041836
487.000000	0.042038
486.000000	0.042202
485.000000	0.042305
484.000000	0.042471
483.000000	0.042660
482.000000	0.042661
481.000000	0.042732
480.000000	0.042917
479.000000	0.043042
478.000000	0.043180
477.000000	0.043370
476.000000	0.043459
475.000000	0.043600
474.000000	0.043745
473.000000	0.043771
472.000000	0.043973
471.000000	0.044224
470.000000	0.044261
469.000000	0.044273
468.000000	0.044461
467.000000	0.044650
466.000000	0.044768
465.000000	0.044935
464.000000	0.045061
463.000000	0.045229
462.000000	0.045327
461.000000	0.045446
460.000000	0.045668
459.000000	0.045822
458.000000	0.045816
457.000000	0.045981
456.000000	0.046177
455.000000	0.046282
454.000000	0.046352
453.000000	0.046550
452.000000	0.046508
451.000000	0.046656
450.000000	0.046957
449.000000	0.047155
448.000000	0.047265
447.000000	0.047362
446.000000	0.047394
445.000000	0.047674
444.000000	0.047852
443.000000	0.047973
442.000000	0.048231
441.000000	0.048417
440.000000	0.048423
439.000000	0.048684
438.000000	0.048927
437.000000	0.049150
436.000000	0.049291
435.000000	0.049492
434.000000	0.049618
433.000000	0.049841
432.000000	0.050098
431.000000	0.050386
430.000000	0.050665
429.000000	0.050767
428.000000	0.050983
427.000000	0.051359
426.000000	0.051575
425.000000	0.051844
424.000000	0.052149
423.000000	0.052372
422.000000	0.052515
421.000000	0.052880
420.000000	0.053223
419.000000	0.053457
418.000000	0.053830
417.000000	0.054044
416.000000	0.054265
415.000000	0.054520
414.000000	0.054873
413.000000	0.055255
412.000000	0.055621
411.000000	0.055915
410.000000	0.056230
409.000000	0.056572
408.000000	0.056898
407.000000	0.057231
406.000000	0.057664
405.000000	0.058059
404.000000	0.058205
403.000000	0.058628
402.000000	0.059135
401.000000	0.059445
400.000000	0.059860
399.000000	0.060258
398.000000	0.060607
397.000000	0.061121
396.000000	0.061418
395.000000	0.062072
394.000000	0.062489
393.000000	0.062994
392.000000	0.063309
391.000000	0.064092
390.000000	0.064582
389.000000	0.064965
388.000000	0.065621
387.000000	0.066167
386.000000	0.066661
385.000000	0.067219
384.000000	0.067930
383.000000	0.068487
382.000000	0.069106
381.000000	0.069863
380.000000	0.070478
379.000000	0.071198
378.000000	0.071827
377.000000	0.072517
376.000000	0.073303
375.000000	0.073821
374.000000	0.074711
373.000000	0.075416
372.000000	0.076139
371.000000	0.076845
370.000000	0.077695
369.000000	0.078461
368.000000	0.079258
367.000000	0.080085
366.000000	0.080836
365.000000	0.081445
364.000000	0.082472
363.000000	0.083294
362.000000	0.084300
361.000000	0.085046
360.000000	0.086065
359.000000	0.086705
358.000000	0.087716
357.000000	0.088522
356.000000	0.089398
355.000000	0.090395
354.000000	0.091311
353.000000	0.092182
352.000000	0.093127
351.000000	0.094115
350.000000	0.095176
349.000000	0.096145
348.000000	0.097149
347.000000	0.098113
346.000000	0.099140
345.000000	0.100271
344.000000	0.101288
343.000000	0.102364
342.000000	0.103508
341.000000	0.104461
340.000000	0.105609
339.000000	0.106811
338.000000	0.107951
337.000000	0.109178
336.000000	0.110432
335.000000	0.111399
334.000000	0.112695
333.000000	0.113901
332.000000	0.115140
331.000000	0.116536
330.000000	0.117937
329.000000	0.119217
328.000000	0.120366
327.000000	0.121832
326.000000	0.123340
325.000000	0.124646
324.000000	0.126081
323.000000	0.127531
322.000000	0.129012
321.000000	0.130642
320.000000	0.132175
319.000000	0.133734
318.000000	0.135530
317.000000	0.137717
316.000000	0.139390
315.000000	0.141124
314.000000	0.142848
313.000000	0.144533
312.000000	0.146351
311.000000	0.148209
310.000000	0.149984
309.000000	0.151893
308.000000	0.153824
307.000000	0.155804
306.000000	0.157837
305.000000	0.159738
304.000000	0.161711
303.000000	0.163885
302.000000	0.165999
301.000000	0.168194
300.000000	0.170374
299.000000	0.172567
298.000000	0.174842
297.000000	0.177274
296.000000	0.179597
295.000000	0.182001
294.000000	0.184443
293.000000	0.186948
292.000000	0.189607
291.000000	0.192281
290.000000	0.194942
289.000000	0.197674
288.000000	0.200371
287.000000	0.203040
286.000000	0.205750
285.000000	0.208512
284.000000	0.211314
283.000000	0.214120
282.000000	0.216911
281.000000	0.219697
280.000000	0.222478
279.000000	0.225286
278.000000	0.228074
277.000000	0.230894
276.000000	0.233810
275.000000	0.236626
274.000000	0.239443
273.000000	0.242299
272.000000	0.245167
271.000000	0.248063
270.000000	0.250949
269.000000	0.253673
268.000000	0.256442
267.000000	0.259266
266.000000	0.261903
265.000000	0.264511
264.000000	0.267193
263.000000	0.269684
262.000000	0.272088
261.000000	0.274611
260.000000	0.276987
259.000000	0.279356
258.000000	0.281688
257.000000	0.283988
256.000000	0.286449
255.000000	0.288759
254.000000	0.291139
253.000000	0.293556
252.000000	0.296041
251.000000	0.298608
250.000000	0.301154
249.000000	0.304021
248.000000	0.307026
247.000000	0.310096
246.000000	0.313411
245.000000	0.317005
244.000000	0.320894
243.000000	0.325061
242.000000	0.329482
241.000000	0.334332
240.000000	0.339551
239.000000	0.344997
238.000000	0.350989
237.000000	0.357547
236.000000	0.364658
235.000000	0.372545
234.000000	0.381180
233.000000	0.390584
232.000000	0.401028
231.000000	0.412581
230.000000	0.425345
229.000000	0.439300
228.000000	0.454521
227.000000	0.471347
226.000000	0.489918
225.000000	0.510271
224.000000	0.532302
223.000000	0.556279
222.000000	0.581869
221.000000	0.609395
220.000000	0.638445
219.000000	0.668859
218.000000	0.700952
217.000000	0.734242
216.000000	0.768724
215.000000	0.804367
214.000000	0.840745
213.000000	0.877943
212.000000	0.915409
211.000000	0.953193
210.000000	0.991376
209.000000	1.029467
208.000000	1.067973
207.000000	1.107538
206.000000	1.148855
205.000000	1.192025
204.000000	1.239026
203.000000	1.292141
202.000000	1.354682
201.000000	1.431700
200.000000	1.530932
