PE UV       SUBTECH     SPECTRUM    ASCII       PEDS        4.00        
   -1
TV4-01B_1.Sample.Raw.asc
11/04/28
10:00:40.00
11/04/28
10:00:40.00
Hermanni Kaartokallio

200.000000
1
Lambda 650
650N8121101
PerkinElmer UV WinLab 6.0.2.0723 / 1.61.00 Lambda 650

0
0
2
0
0
UV/VIS
1
1
1
uv/vis/nir detector
0
0
0
0
Fix
 
0
0.24
0
0
0
 
 
 
0
 
0
319.2
0
Front
100
 
 
 
0
0
0
 
0
 
 
 
0
 
 
0
0
0
0
0
 
 
 
 
0
0
#HDR
-1
-1
#GR
nm
A
1.0
0.0
800.000000
-1.000000
601
8
2.602817
0.035645
#DATA
800.000000	0.045319
799.000000	0.045301
798.000000	0.045210
797.000000	0.045240
796.000000	0.045255
795.000000	0.045345
794.000000	0.045458
793.000000	0.045501
792.000000	0.045646
791.000000	0.045737
790.000000	0.045919
789.000000	0.046198
788.000000	0.046305
787.000000	0.046384
786.000000	0.046572
785.000000	0.046780
784.000000	0.046983
783.000000	0.047165
782.000000	0.047226
781.000000	0.047475
780.000000	0.047534
779.000000	0.047705
778.000000	0.047869
777.000000	0.047891
776.000000	0.047956
775.000000	0.048071
774.000000	0.048028
773.000000	0.048114
772.000000	0.048072
771.000000	0.048177
770.000000	0.048173
769.000000	0.048122
768.000000	0.048155
767.000000	0.048134
766.000000	0.048280
765.000000	0.048238
764.000000	0.048285
763.000000	0.048441
762.000000	0.048367
761.000000	0.048369
760.000000	0.048499
759.000000	0.048576
758.000000	0.048458
757.000000	0.048460
756.000000	0.048481
755.000000	0.048486
754.000000	0.048290
753.000000	0.048204
752.000000	0.048307
751.000000	0.048064
750.000000	0.048011
749.000000	0.047963
748.000000	0.047960
747.000000	0.047856
746.000000	0.047706
745.000000	0.047533
744.000000	0.047442
743.000000	0.047307
742.000000	0.047218
741.000000	0.047049
740.000000	0.046918
739.000000	0.046637
738.000000	0.046406
737.000000	0.046068
736.000000	0.045687
735.000000	0.045298
734.000000	0.044954
733.000000	0.044287
732.000000	0.043688
731.000000	0.043313
730.000000	0.042869
729.000000	0.042356
728.000000	0.041956
727.000000	0.041697
726.000000	0.041336
725.000000	0.041032
724.000000	0.040838
723.000000	0.040728
722.000000	0.040478
721.000000	0.040272
720.000000	0.040084
719.000000	0.039904
718.000000	0.039803
717.000000	0.039687
716.000000	0.039503
715.000000	0.039229
714.000000	0.039015
713.000000	0.038985
712.000000	0.038852
711.000000	0.038655
710.000000	0.038531
709.000000	0.038442
708.000000	0.038305
707.000000	0.038213
706.000000	0.038168
705.000000	0.038074
704.000000	0.037935
703.000000	0.037806
702.000000	0.037759
701.000000	0.037766
700.000000	0.037733
699.000000	0.037744
698.000000	0.037744
697.000000	0.037629
696.000000	0.037586
695.000000	0.037682
694.000000	0.037722
693.000000	0.037719
692.000000	0.037737
691.000000	0.037771
690.000000	0.037743
689.000000	0.037707
688.000000	0.037698
687.000000	0.037640
686.000000	0.037583
685.000000	0.037531
684.000000	0.037520
683.000000	0.037449
682.000000	0.037281
681.000000	0.037225
680.000000	0.037178
679.000000	0.037029
678.000000	0.036880
677.000000	0.036803
676.000000	0.036691
675.000000	0.036534
674.000000	0.036431
673.000000	0.036364
672.000000	0.036226
671.000000	0.036169
670.000000	0.036102
669.000000	0.036027
668.000000	0.035960
667.000000	0.035869
666.000000	0.035788
665.000000	0.035709
664.000000	0.035645
663.000000	0.035748
662.000000	0.035813
661.000000	0.035790
660.000000	0.035803
659.000000	0.035826
658.000000	0.035756
657.000000	0.035779
656.000000	0.035830
655.000000	0.035841
654.000000	0.035851
653.000000	0.035878
652.000000	0.035971
651.000000	0.036076
650.000000	0.036131
649.000000	0.036203
648.000000	0.036268
647.000000	0.036286
646.000000	0.036245
645.000000	0.036336
644.000000	0.036419
643.000000	0.036378
642.000000	0.036414
641.000000	0.036466
640.000000	0.036417
639.000000	0.036387
638.000000	0.036376
637.000000	0.036470
636.000000	0.036386
635.000000	0.036400
634.000000	0.036360
633.000000	0.036336
632.000000	0.036406
631.000000	0.036442
630.000000	0.036482
629.000000	0.036448
628.000000	0.036413
627.000000	0.036535
626.000000	0.036613
625.000000	0.036615
624.000000	0.036669
623.000000	0.036716
622.000000	0.036746
621.000000	0.036751
620.000000	0.036881
619.000000	0.036995
618.000000	0.036972
617.000000	0.036989
616.000000	0.037053
615.000000	0.037069
614.000000	0.037139
613.000000	0.037146
612.000000	0.037223
611.000000	0.037214
610.000000	0.037238
609.000000	0.037291
608.000000	0.037353
607.000000	0.037360
606.000000	0.037359
605.000000	0.037312
604.000000	0.037375
603.000000	0.037338
602.000000	0.037311
601.000000	0.037346
600.000000	0.037204
599.000000	0.037146
598.000000	0.037140
597.000000	0.037159
596.000000	0.037048
595.000000	0.036975
594.000000	0.037096
593.000000	0.036951
592.000000	0.036898
591.000000	0.036856
590.000000	0.036943
589.000000	0.036926
588.000000	0.036933
587.000000	0.036983
586.000000	0.036945
585.000000	0.036896
584.000000	0.036954
583.000000	0.036944
582.000000	0.036911
581.000000	0.036915
580.000000	0.036933
579.000000	0.036926
578.000000	0.036952
577.000000	0.036915
576.000000	0.037044
575.000000	0.037096
574.000000	0.037015
573.000000	0.037009
572.000000	0.037178
571.000000	0.037247
570.000000	0.037175
569.000000	0.037231
568.000000	0.037288
567.000000	0.037249
566.000000	0.037212
565.000000	0.037311
564.000000	0.037249
563.000000	0.037180
562.000000	0.037163
561.000000	0.037228
560.000000	0.037120
559.000000	0.037180
558.000000	0.037177
557.000000	0.037055
556.000000	0.037000
555.000000	0.037033
554.000000	0.036924
553.000000	0.036881
552.000000	0.036904
551.000000	0.036943
550.000000	0.036852
549.000000	0.036791
548.000000	0.036733
547.000000	0.036744
546.000000	0.036706
545.000000	0.036709
544.000000	0.036719
543.000000	0.036688
542.000000	0.036566
541.000000	0.036614
540.000000	0.036655
539.000000	0.036600
538.000000	0.036590
537.000000	0.036594
536.000000	0.036603
535.000000	0.036624
534.000000	0.036647
533.000000	0.036663
532.000000	0.036613
531.000000	0.036613
530.000000	0.036669
529.000000	0.036866
528.000000	0.036872
527.000000	0.036856
526.000000	0.036931
525.000000	0.036940
524.000000	0.036937
523.000000	0.037017
522.000000	0.037103
521.000000	0.037135
520.000000	0.037111
519.000000	0.037157
518.000000	0.037158
517.000000	0.037160
516.000000	0.037210
515.000000	0.037332
514.000000	0.037316
513.000000	0.037297
512.000000	0.037308
511.000000	0.037354
510.000000	0.037347
509.000000	0.037336
508.000000	0.037392
507.000000	0.037420
506.000000	0.037401
505.000000	0.037447
504.000000	0.037488
503.000000	0.037497
502.000000	0.037504
501.000000	0.037544
500.000000	0.037599
499.000000	0.037653
498.000000	0.037746
497.000000	0.037834
496.000000	0.037859
495.000000	0.037897
494.000000	0.037973
493.000000	0.038040
492.000000	0.038067
491.000000	0.038109
490.000000	0.038210
489.000000	0.038237
488.000000	0.038283
487.000000	0.038434
486.000000	0.038515
485.000000	0.038526
484.000000	0.038536
483.000000	0.038567
482.000000	0.038657
481.000000	0.038758
480.000000	0.038857
479.000000	0.038954
478.000000	0.039041
477.000000	0.039058
476.000000	0.039155
475.000000	0.039256
474.000000	0.039290
473.000000	0.039290
472.000000	0.039441
471.000000	0.039471
470.000000	0.039446
469.000000	0.039467
468.000000	0.039602
467.000000	0.039687
466.000000	0.039656
465.000000	0.039760
464.000000	0.039894
463.000000	0.039907
462.000000	0.039906
461.000000	0.039996
460.000000	0.040095
459.000000	0.040017
458.000000	0.040032
457.000000	0.040165
456.000000	0.040200
455.000000	0.040141
454.000000	0.040202
453.000000	0.040263
452.000000	0.040220
451.000000	0.040248
450.000000	0.040396
449.000000	0.040430
448.000000	0.040421
447.000000	0.040488
446.000000	0.040522
445.000000	0.040575
444.000000	0.040556
443.000000	0.040656
442.000000	0.040695
441.000000	0.040606
440.000000	0.040692
439.000000	0.040833
438.000000	0.040894
437.000000	0.040892
436.000000	0.040990
435.000000	0.041061
434.000000	0.040999
433.000000	0.041068
432.000000	0.041280
431.000000	0.041335
430.000000	0.041378
429.000000	0.041421
428.000000	0.041530
427.000000	0.041688
426.000000	0.041682
425.000000	0.041907
424.000000	0.041990
423.000000	0.041904
422.000000	0.041990
421.000000	0.042250
420.000000	0.042265
419.000000	0.042316
418.000000	0.042460
417.000000	0.042543
416.000000	0.042670
415.000000	0.042708
414.000000	0.042917
413.000000	0.042999
412.000000	0.043106
411.000000	0.043149
410.000000	0.043385
409.000000	0.043413
408.000000	0.043529
407.000000	0.043719
406.000000	0.043868
405.000000	0.043782
404.000000	0.043913
403.000000	0.044207
402.000000	0.044363
401.000000	0.044353
400.000000	0.044506
399.000000	0.044712
398.000000	0.044857
397.000000	0.044932
396.000000	0.045186
395.000000	0.045427
394.000000	0.045509
393.000000	0.045588
392.000000	0.045841
391.000000	0.046204
390.000000	0.046252
389.000000	0.046551
388.000000	0.046867
387.000000	0.046952
386.000000	0.047139
385.000000	0.047460
384.000000	0.047795
383.000000	0.047924
382.000000	0.048165
381.000000	0.048488
380.000000	0.048840
379.000000	0.049015
378.000000	0.049697
377.000000	0.049858
376.000000	0.050062
375.000000	0.050287
374.000000	0.050804
373.000000	0.050974
372.000000	0.051163
371.000000	0.051615
370.000000	0.051891
369.000000	0.052116
368.000000	0.052563
367.000000	0.052925
366.000000	0.053261
365.000000	0.053286
364.000000	0.053946
363.000000	0.054275
362.000000	0.054522
361.000000	0.054938
360.000000	0.055344
359.000000	0.055604
358.000000	0.055949
357.000000	0.056368
356.000000	0.056839
355.000000	0.057101
354.000000	0.057515
353.000000	0.057895
352.000000	0.058274
351.000000	0.058579
350.000000	0.059034
349.000000	0.059539
348.000000	0.059877
347.000000	0.060315
346.000000	0.060827
345.000000	0.061336
344.000000	0.061690
343.000000	0.062122
342.000000	0.062649
341.000000	0.063022
340.000000	0.063414
339.000000	0.063949
338.000000	0.064552
337.000000	0.064975
336.000000	0.065403
335.000000	0.065957
334.000000	0.066539
333.000000	0.067009
332.000000	0.067532
331.000000	0.068260
330.000000	0.068802
329.000000	0.069210
328.000000	0.069896
327.000000	0.070587
326.000000	0.071242
325.000000	0.071818
324.000000	0.072606
323.000000	0.073341
322.000000	0.073958
321.000000	0.074641
320.000000	0.075391
319.000000	0.076181
318.000000	0.077214
317.000000	0.078752
316.000000	0.079528
315.000000	0.080473
314.000000	0.081351
313.000000	0.082143
312.000000	0.083088
311.000000	0.084104
310.000000	0.084962
309.000000	0.085936
308.000000	0.086987
307.000000	0.088084
306.000000	0.089118
305.000000	0.090167
304.000000	0.091301
303.000000	0.092440
302.000000	0.093473
301.000000	0.094744
300.000000	0.096085
299.000000	0.097362
298.000000	0.098507
297.000000	0.099963
296.000000	0.101370
295.000000	0.102785
294.000000	0.104228
293.000000	0.105795
292.000000	0.107411
291.000000	0.109005
290.000000	0.110627
289.000000	0.112336
288.000000	0.113958
287.000000	0.115547
286.000000	0.117279
285.000000	0.119046
284.000000	0.120715
283.000000	0.122504
282.000000	0.124295
281.000000	0.125943
280.000000	0.127643
279.000000	0.129499
278.000000	0.131332
277.000000	0.133050
276.000000	0.134825
275.000000	0.136614
274.000000	0.138409
273.000000	0.140105
272.000000	0.141899
271.000000	0.143879
270.000000	0.145679
269.000000	0.147322
268.000000	0.149075
267.000000	0.150738
266.000000	0.152305
265.000000	0.153871
264.000000	0.155537
263.000000	0.157074
262.000000	0.158364
261.000000	0.159993
260.000000	0.161545
259.000000	0.162943
258.000000	0.164247
257.000000	0.165644
256.000000	0.167066
255.000000	0.168331
254.000000	0.169809
253.000000	0.171334
252.000000	0.172728
251.000000	0.174146
250.000000	0.175564
249.000000	0.177317
248.000000	0.178958
247.000000	0.180665
246.000000	0.182649
245.000000	0.184771
244.000000	0.186772
243.000000	0.189123
242.000000	0.191662
241.000000	0.194280
240.000000	0.197023
239.000000	0.200127
238.000000	0.203234
237.000000	0.206599
236.000000	0.210199
235.000000	0.214183
234.000000	0.218353
233.000000	0.222958
232.000000	0.227755
231.000000	0.233101
230.000000	0.238693
229.000000	0.244743
228.000000	0.251259
227.000000	0.258470
226.000000	0.266215
225.000000	0.274808
224.000000	0.284447
223.000000	0.295070
222.000000	0.306658
221.000000	0.319853
220.000000	0.334523
219.000000	0.351146
218.000000	0.370088
217.000000	0.391983
216.000000	0.417258
215.000000	0.446723
214.000000	0.481080
213.000000	0.521786
212.000000	0.569381
211.000000	0.625117
210.000000	0.689944
209.000000	0.765695
208.000000	0.853314
207.000000	0.956345
206.000000	1.077462
205.000000	1.220027
204.000000	1.390403
203.000000	1.599045
202.000000	1.858246
201.000000	2.182986
200.000000	2.602817
