PE UV       SUBTECH     SPECTRUM    ASCII       PEDS        4.00        
   -1
TV4-03B_1.Sample.Raw.asc
11/04/28
10:18:00.00
11/04/28
10:18:00.00
Hermanni Kaartokallio

200.000000
1
Lambda 650
650N8121101
PerkinElmer UV WinLab 6.0.2.0723 / 1.61.00 Lambda 650

0
0
2
0
0
UV/VIS
1
1
1
uv/vis/nir detector
0
0
0
0
Fix
 
0
0.24
0
0
0
 
 
 
0
 
0
319.2
0
Front
100
 
 
 
0
0
0
 
0
 
 
 
0
 
 
0
0
0
0
0
 
 
 
 
0
0
#HDR
-1
-1
#GR
nm
A
1.0
0.0
800.000000
-1.000000
601
8
3.141714
0.034950
#DATA
800.000000	0.044475
799.000000	0.044549
798.000000	0.044580
797.000000	0.044527
796.000000	0.044418
795.000000	0.044505
794.000000	0.044548
793.000000	0.044562
792.000000	0.044726
791.000000	0.044963
790.000000	0.044992
789.000000	0.045284
788.000000	0.045417
787.000000	0.045611
786.000000	0.045750
785.000000	0.045898
784.000000	0.046179
783.000000	0.046394
782.000000	0.046357
781.000000	0.046504
780.000000	0.046582
779.000000	0.046887
778.000000	0.046901
777.000000	0.047001
776.000000	0.047084
775.000000	0.047090
774.000000	0.047095
773.000000	0.047208
772.000000	0.047189
771.000000	0.047166
770.000000	0.047172
769.000000	0.047224
768.000000	0.047315
767.000000	0.047276
766.000000	0.047431
765.000000	0.047397
764.000000	0.047393
763.000000	0.047616
762.000000	0.047645
761.000000	0.047634
760.000000	0.047673
759.000000	0.047758
758.000000	0.047659
757.000000	0.047610
756.000000	0.047551
755.000000	0.047658
754.000000	0.047538
753.000000	0.047411
752.000000	0.047472
751.000000	0.047372
750.000000	0.047290
749.000000	0.047114
748.000000	0.047125
747.000000	0.047072
746.000000	0.046884
745.000000	0.046713
744.000000	0.046700
743.000000	0.046513
742.000000	0.046397
741.000000	0.046286
740.000000	0.046132
739.000000	0.045881
738.000000	0.045649
737.000000	0.045365
736.000000	0.045026
735.000000	0.044519
734.000000	0.044059
733.000000	0.043564
732.000000	0.042920
731.000000	0.042395
730.000000	0.042004
729.000000	0.041532
728.000000	0.041066
727.000000	0.040776
726.000000	0.040443
725.000000	0.040186
724.000000	0.039981
723.000000	0.039864
722.000000	0.039680
721.000000	0.039408
720.000000	0.039151
719.000000	0.038995
718.000000	0.038886
717.000000	0.038716
716.000000	0.038565
715.000000	0.038346
714.000000	0.038107
713.000000	0.037925
712.000000	0.037843
711.000000	0.037735
710.000000	0.037523
709.000000	0.037418
708.000000	0.037367
707.000000	0.037216
706.000000	0.037106
705.000000	0.037053
704.000000	0.036945
703.000000	0.036783
702.000000	0.036714
701.000000	0.036777
700.000000	0.036810
699.000000	0.036796
698.000000	0.036807
697.000000	0.036819
696.000000	0.036773
695.000000	0.036799
694.000000	0.036904
693.000000	0.036913
692.000000	0.036846
691.000000	0.036838
690.000000	0.036871
689.000000	0.036854
688.000000	0.036761
687.000000	0.036713
686.000000	0.036709
685.000000	0.036647
684.000000	0.036584
683.000000	0.036598
682.000000	0.036443
681.000000	0.036294
680.000000	0.036302
679.000000	0.036230
678.000000	0.036092
677.000000	0.035947
676.000000	0.035945
675.000000	0.035780
674.000000	0.035604
673.000000	0.035583
672.000000	0.035485
671.000000	0.035360
670.000000	0.035304
669.000000	0.035244
668.000000	0.035216
667.000000	0.035121
666.000000	0.035064
665.000000	0.035026
664.000000	0.034956
663.000000	0.034950
662.000000	0.035075
661.000000	0.035128
660.000000	0.035061
659.000000	0.035055
658.000000	0.035086
657.000000	0.035067
656.000000	0.035097
655.000000	0.035109
654.000000	0.035213
653.000000	0.035226
652.000000	0.035233
651.000000	0.035337
650.000000	0.035391
649.000000	0.035411
648.000000	0.035511
647.000000	0.035580
646.000000	0.035558
645.000000	0.035547
644.000000	0.035651
643.000000	0.035717
642.000000	0.035753
641.000000	0.035709
640.000000	0.035752
639.000000	0.035762
638.000000	0.035581
637.000000	0.035645
636.000000	0.035657
635.000000	0.035668
634.000000	0.035568
633.000000	0.035592
632.000000	0.035664
631.000000	0.035691
630.000000	0.035720
629.000000	0.035716
628.000000	0.035665
627.000000	0.035754
626.000000	0.035873
625.000000	0.035923
624.000000	0.035916
623.000000	0.035967
622.000000	0.036069
621.000000	0.036125
620.000000	0.036156
619.000000	0.036232
618.000000	0.036262
617.000000	0.036342
616.000000	0.036314
615.000000	0.036377
614.000000	0.036462
613.000000	0.036503
612.000000	0.036526
611.000000	0.036659
610.000000	0.036700
609.000000	0.036611
608.000000	0.036665
607.000000	0.036763
606.000000	0.036774
605.000000	0.036685
604.000000	0.036768
603.000000	0.036687
602.000000	0.036668
601.000000	0.036727
600.000000	0.036638
599.000000	0.036655
598.000000	0.036585
597.000000	0.036494
596.000000	0.036442
595.000000	0.036379
594.000000	0.036368
593.000000	0.036394
592.000000	0.036353
591.000000	0.036305
590.000000	0.036232
589.000000	0.036355
588.000000	0.036369
587.000000	0.036346
586.000000	0.036331
585.000000	0.036331
584.000000	0.036364
583.000000	0.036245
582.000000	0.036348
581.000000	0.036406
580.000000	0.036355
579.000000	0.036375
578.000000	0.036405
577.000000	0.036549
576.000000	0.036467
575.000000	0.036487
574.000000	0.036517
573.000000	0.036427
572.000000	0.036566
571.000000	0.036658
570.000000	0.036627
569.000000	0.036639
568.000000	0.036622
567.000000	0.036622
566.000000	0.036634
565.000000	0.036659
564.000000	0.036581
563.000000	0.036616
562.000000	0.036532
561.000000	0.036567
560.000000	0.036439
559.000000	0.036511
558.000000	0.036379
557.000000	0.036334
556.000000	0.036239
555.000000	0.036258
554.000000	0.036163
553.000000	0.036162
552.000000	0.036210
551.000000	0.036177
550.000000	0.036146
549.000000	0.036064
548.000000	0.035918
547.000000	0.035888
546.000000	0.035967
545.000000	0.035982
544.000000	0.035936
543.000000	0.035921
542.000000	0.035836
541.000000	0.035846
540.000000	0.035832
539.000000	0.035853
538.000000	0.035866
537.000000	0.035859
536.000000	0.035857
535.000000	0.035914
534.000000	0.035961
533.000000	0.035948
532.000000	0.035904
531.000000	0.035987
530.000000	0.036017
529.000000	0.036125
528.000000	0.036121
527.000000	0.036079
526.000000	0.036116
525.000000	0.036108
524.000000	0.036167
523.000000	0.036273
522.000000	0.036314
521.000000	0.036382
520.000000	0.036430
519.000000	0.036470
518.000000	0.036482
517.000000	0.036507
516.000000	0.036506
515.000000	0.036583
514.000000	0.036612
513.000000	0.036631
512.000000	0.036565
511.000000	0.036581
510.000000	0.036700
509.000000	0.036668
508.000000	0.036631
507.000000	0.036682
506.000000	0.036706
505.000000	0.036693
504.000000	0.036749
503.000000	0.036818
502.000000	0.036861
501.000000	0.036858
500.000000	0.036855
499.000000	0.036938
498.000000	0.036957
497.000000	0.036971
496.000000	0.037015
495.000000	0.037087
494.000000	0.037123
493.000000	0.037166
492.000000	0.037290
491.000000	0.037341
490.000000	0.037399
489.000000	0.037477
488.000000	0.037517
487.000000	0.037627
486.000000	0.037738
485.000000	0.037821
484.000000	0.037876
483.000000	0.037892
482.000000	0.037945
481.000000	0.038044
480.000000	0.038123
479.000000	0.038167
478.000000	0.038258
477.000000	0.038299
476.000000	0.038335
475.000000	0.038391
474.000000	0.038446
473.000000	0.038455
472.000000	0.038512
471.000000	0.038540
470.000000	0.038530
469.000000	0.038548
468.000000	0.038642
467.000000	0.038724
466.000000	0.038732
465.000000	0.038707
464.000000	0.038781
463.000000	0.038869
462.000000	0.038897
461.000000	0.038876
460.000000	0.038902
459.000000	0.038906
458.000000	0.038925
457.000000	0.038974
456.000000	0.039031
455.000000	0.039055
454.000000	0.038954
453.000000	0.039002
452.000000	0.038967
451.000000	0.039003
450.000000	0.039095
449.000000	0.039091
448.000000	0.039083
447.000000	0.039074
446.000000	0.039080
445.000000	0.039145
444.000000	0.039173
443.000000	0.039194
442.000000	0.039235
441.000000	0.039215
440.000000	0.039221
439.000000	0.039328
438.000000	0.039375
437.000000	0.039393
436.000000	0.039414
435.000000	0.039488
434.000000	0.039444
433.000000	0.039528
432.000000	0.039652
431.000000	0.039664
430.000000	0.039772
429.000000	0.039650
428.000000	0.039821
427.000000	0.039885
426.000000	0.039840
425.000000	0.039997
424.000000	0.040064
423.000000	0.039970
422.000000	0.040079
421.000000	0.040260
420.000000	0.040265
419.000000	0.040324
418.000000	0.040402
417.000000	0.040419
416.000000	0.040496
415.000000	0.040616
414.000000	0.040625
413.000000	0.040682
412.000000	0.040808
411.000000	0.040785
410.000000	0.040902
409.000000	0.040981
408.000000	0.041012
407.000000	0.041102
406.000000	0.041159
405.000000	0.041206
404.000000	0.041343
403.000000	0.041388
402.000000	0.041532
401.000000	0.041556
400.000000	0.041731
399.000000	0.041730
398.000000	0.041802
397.000000	0.041940
396.000000	0.042067
395.000000	0.042153
394.000000	0.042299
393.000000	0.042446
392.000000	0.042552
391.000000	0.042955
390.000000	0.042807
389.000000	0.042969
388.000000	0.043199
387.000000	0.043328
386.000000	0.043383
385.000000	0.043563
384.000000	0.043742
383.000000	0.043976
382.000000	0.044184
381.000000	0.044335
380.000000	0.044581
379.000000	0.044729
378.000000	0.045058
377.000000	0.045070
376.000000	0.045274
375.000000	0.045455
374.000000	0.045777
373.000000	0.045948
372.000000	0.046109
371.000000	0.046382
370.000000	0.046602
369.000000	0.046852
368.000000	0.047141
367.000000	0.047337
366.000000	0.047600
365.000000	0.047640
364.000000	0.048042
363.000000	0.048255
362.000000	0.048385
361.000000	0.048680
360.000000	0.048922
359.000000	0.049053
358.000000	0.049422
357.000000	0.049619
356.000000	0.049850
355.000000	0.050099
354.000000	0.050344
353.000000	0.050568
352.000000	0.050792
351.000000	0.051042
350.000000	0.051338
349.000000	0.051591
348.000000	0.051814
347.000000	0.052121
346.000000	0.052400
345.000000	0.052730
344.000000	0.052956
343.000000	0.053310
342.000000	0.053619
341.000000	0.053837
340.000000	0.054145
339.000000	0.054487
338.000000	0.054814
337.000000	0.055170
336.000000	0.055431
335.000000	0.055767
334.000000	0.056148
333.000000	0.056441
332.000000	0.056815
331.000000	0.057239
330.000000	0.057622
329.000000	0.058006
328.000000	0.058479
327.000000	0.058949
326.000000	0.059432
325.000000	0.059813
324.000000	0.060345
323.000000	0.060727
322.000000	0.061232
321.000000	0.061834
320.000000	0.062258
319.000000	0.062671
318.000000	0.063459
317.000000	0.064449
316.000000	0.065052
315.000000	0.065775
314.000000	0.066409
313.000000	0.066961
312.000000	0.067596
311.000000	0.068300
310.000000	0.068918
309.000000	0.069728
308.000000	0.070491
307.000000	0.071258
306.000000	0.072036
305.000000	0.072820
304.000000	0.073599
303.000000	0.074454
302.000000	0.075245
301.000000	0.076247
300.000000	0.077226
299.000000	0.078119
298.000000	0.079164
297.000000	0.080333
296.000000	0.081355
295.000000	0.082435
294.000000	0.083633
293.000000	0.084911
292.000000	0.086023
291.000000	0.087258
290.000000	0.088600
289.000000	0.089920
288.000000	0.091169
287.000000	0.092477
286.000000	0.093824
285.000000	0.095169
284.000000	0.096576
283.000000	0.097998
282.000000	0.099286
281.000000	0.100608
280.000000	0.102073
279.000000	0.103539
278.000000	0.104938
277.000000	0.106386
276.000000	0.107851
275.000000	0.109221
274.000000	0.110642
273.000000	0.112124
272.000000	0.113549
271.000000	0.114941
270.000000	0.116366
269.000000	0.117780
268.000000	0.119249
267.000000	0.120650
266.000000	0.121984
265.000000	0.123288
264.000000	0.124647
263.000000	0.125937
262.000000	0.127145
261.000000	0.128490
260.000000	0.129733
259.000000	0.130843
258.000000	0.132002
257.000000	0.133056
256.000000	0.134282
255.000000	0.135474
254.000000	0.136694
253.000000	0.137855
252.000000	0.138954
251.000000	0.140152
250.000000	0.141416
249.000000	0.142803
248.000000	0.144101
247.000000	0.145524
246.000000	0.147132
245.000000	0.148735
244.000000	0.150461
243.000000	0.152364
242.000000	0.154251
241.000000	0.156263
240.000000	0.158589
239.000000	0.160929
238.000000	0.163384
237.000000	0.166020
236.000000	0.168865
235.000000	0.171946
234.000000	0.175172
233.000000	0.178571
232.000000	0.182180
231.000000	0.185997
230.000000	0.189924
229.000000	0.194254
228.000000	0.198898
227.000000	0.203723
226.000000	0.209226
225.000000	0.215309
224.000000	0.222020
223.000000	0.229650
222.000000	0.238476
221.000000	0.248737
220.000000	0.260712
219.000000	0.275027
218.000000	0.292154
217.000000	0.312898
216.000000	0.338135
215.000000	0.368832
214.000000	0.406340
213.000000	0.452287
212.000000	0.507863
211.000000	0.574484
210.000000	0.653855
209.000000	0.747710
208.000000	0.858216
207.000000	0.989235
206.000000	1.144318
205.000000	1.329222
204.000000	1.550027
203.000000	1.819963
202.000000	2.153823
201.000000	2.576266
200.000000	3.141714
