PE UV       SUBTECH     SPECTRUM    ASCII       PEDS        4.00        	
-1	
KI301A061010_1CM_CELL.Sample.Raw.asc	
10.10.2008	
10:28:06.00	
10.10.2008	
10:28:06.00	
Hermanni Kaartokallio	
	
200.000000	
1	
Lambda 650	
650N8121101	
PerkinElmer UV WinLab 6.0.2.0723 / 1.61.00 Lambda 650	
	
0	
0	
2	
0	
0	
UV/VIS	
1	
1	
1	
uv/vis/nir detector	
0	
0	
0	
0	
Fix	
 	
0	
0.24	
0	
0	
0	
 	
 	
 	
0	
 	
0	
319.2	
0	
Front	
100	
 	
 	
 	
0	
0	
0	
 	
0	
 	
 	
 	
0	
 	
 	
0	
0	
0	
0	
0	
 	
 	
 	
 	
0	
0	
#HDR	
-1	
-1	
#GR	
nm	
A	
1.0	
0.0	
800.000000	
-1.000000	
601	
8	
10.000000	
0.034210	
#DATA	
800.000000	10.000000
799.000000	0.041975
798.000000	0.042188
797.000000	0.042215
796.000000	0.042427
795.000000	0.042471
794.000000	0.042699
793.000000	0.042641
792.000000	0.042708
791.000000	0.042743
790.000000	0.042951
789.000000	0.042880
788.000000	0.042966
787.000000	0.043147
786.000000	0.043090
785.000000	0.043205
784.000000	0.043415
783.000000	0.043433
782.000000	0.043564
781.000000	0.043595
780.000000	0.043506
779.000000	0.043651
778.000000	0.043820
777.000000	0.043676
776.000000	0.043630
775.000000	0.043694
774.000000	0.043724
773.000000	0.043807
772.000000	0.043887
771.000000	0.043873
770.000000	0.043851
769.000000	0.043825
768.000000	0.043782
767.000000	0.043788
766.000000	0.043949
765.000000	0.043890
764.000000	0.043874
763.000000	0.043821
762.000000	0.043772
761.000000	0.043914
760.000000	0.043954
759.000000	0.043875
758.000000	0.043832
757.000000	0.043851
756.000000	0.043867
755.000000	0.043898
754.000000	0.044074
753.000000	0.044064
752.000000	0.044102
751.000000	0.044198
750.000000	0.044160
749.000000	0.044197
748.000000	0.044276
747.000000	0.044262
746.000000	0.044417
745.000000	0.044413
744.000000	0.044288
743.000000	0.044339
742.000000	0.044453
741.000000	0.044330
740.000000	0.044271
739.000000	0.044137
738.000000	0.043914
737.000000	0.043768
736.000000	0.043718
735.000000	0.043380
734.000000	0.043008
733.000000	0.042536
732.000000	0.041990
731.000000	0.041624
730.000000	0.041195
729.000000	0.040649
728.000000	0.040180
727.000000	0.039715
726.000000	0.039282
725.000000	0.039127
724.000000	0.038968
723.000000	0.038623
722.000000	0.038388
721.000000	0.038110
720.000000	0.037776
719.000000	0.037651
718.000000	0.037491
717.000000	0.037217
716.000000	0.036945
715.000000	0.036641
714.000000	0.036372
713.000000	0.036234
712.000000	0.036093
711.000000	0.035800
710.000000	0.035621
709.000000	0.035428
708.000000	0.035171
707.000000	0.035142
706.000000	0.035104
705.000000	0.034926
704.000000	0.034802
703.000000	0.034698
702.000000	0.034579
701.000000	0.034572
700.000000	0.034569
699.000000	0.034481
698.000000	0.034387
697.000000	0.034210
696.000000	0.034228
695.000000	0.034393
694.000000	0.034382
693.000000	0.034345
692.000000	0.034422
691.000000	0.034441
690.000000	0.034482
689.000000	0.034394
688.000000	0.034748
687.000000	0.034921
686.000000	0.034919
685.000000	0.035081
684.000000	0.035153
683.000000	0.035178
682.000000	0.035244
681.000000	0.035349
680.000000	0.035552
679.000000	0.035700
678.000000	0.035700
677.000000	0.035704
676.000000	0.035733
675.000000	0.035851
674.000000	0.036015
673.000000	0.036016
672.000000	0.036057
671.000000	0.036194
670.000000	0.036145
669.000000	0.036113
668.000000	0.036265
667.000000	0.036256
666.000000	0.036195
665.000000	0.036209
664.000000	0.036186
663.000000	0.036206
662.000000	0.036200
661.000000	0.036175
660.000000	0.036318
659.000000	0.036333
658.000000	0.036204
657.000000	0.036215
656.000000	0.036394
655.000000	0.036384
654.000000	0.036432
653.000000	0.036496
652.000000	0.036496
651.000000	0.036502
650.000000	0.036626
649.000000	0.036715
648.000000	0.036668
647.000000	0.036742
646.000000	0.036758
645.000000	0.036876
644.000000	0.036951
643.000000	0.036945
642.000000	0.037106
641.000000	0.037156
640.000000	0.037074
639.000000	0.037130
638.000000	0.037374
637.000000	0.037416
636.000000	0.037448
635.000000	0.037575
634.000000	0.037548
633.000000	0.037546
632.000000	0.037733
631.000000	0.037814
630.000000	0.037862
629.000000	0.037842
628.000000	0.037913
627.000000	0.038016
626.000000	0.038189
625.000000	0.038227
624.000000	0.038435
623.000000	0.038493
622.000000	0.038461
621.000000	0.038632
620.000000	0.038882
619.000000	0.038908
618.000000	0.038958
617.000000	0.039135
616.000000	0.039161
615.000000	0.039224
614.000000	0.039446
613.000000	0.039525
612.000000	0.039530
611.000000	0.039600
610.000000	0.039623
609.000000	0.039821
608.000000	0.040022
607.000000	0.040013
606.000000	0.040040
605.000000	0.040225
604.000000	0.040097
603.000000	0.040187
602.000000	0.040451
601.000000	0.040411
600.000000	0.040344
599.000000	0.040463
598.000000	0.040450
597.000000	0.040395
596.000000	0.040289
595.000000	0.040486
594.000000	0.040445
593.000000	0.040460
592.000000	0.040432
591.000000	0.040422
590.000000	0.040478
589.000000	0.040588
588.000000	0.040466
587.000000	0.040627
586.000000	0.040664
585.000000	0.040608
584.000000	0.040737
583.000000	0.040949
582.000000	0.040876
581.000000	0.041050
580.000000	0.041167
579.000000	0.041217
578.000000	0.041326
577.000000	0.041555
576.000000	0.041546
575.000000	0.041633
574.000000	0.041725
573.000000	0.041764
572.000000	0.041940
571.000000	0.042213
570.000000	0.042302
569.000000	0.042458
568.000000	0.042562
567.000000	0.042613
566.000000	0.042846
565.000000	0.043141
564.000000	0.043251
563.000000	0.043451
562.000000	0.043662
561.000000	0.044085
560.000000	0.043772
559.000000	0.043926
558.000000	0.044140
557.000000	0.044259
556.000000	0.044497
555.000000	0.044659
554.000000	0.044738
553.000000	0.044999
552.000000	0.045300
551.000000	0.045423
550.000000	0.045523
549.000000	0.045663
548.000000	0.045815
547.000000	0.046037
546.000000	0.046218
545.000000	0.046389
544.000000	0.046582
543.000000	0.046718
542.000000	0.046789
541.000000	0.047091
540.000000	0.047380
539.000000	0.047404
538.000000	0.047596
537.000000	0.047794
536.000000	0.047890
535.000000	0.048151
534.000000	0.048425
533.000000	0.048561
532.000000	0.048688
531.000000	0.048824
530.000000	0.048976
529.000000	0.049197
528.000000	0.049398
527.000000	0.049597
526.000000	0.049847
525.000000	0.049925
524.000000	0.049961
523.000000	0.050315
522.000000	0.050651
521.000000	0.050670
520.000000	0.050813
519.000000	0.050992
518.000000	0.051110
517.000000	0.051390
516.000000	0.051629
515.000000	0.051766
514.000000	0.051925
513.000000	0.052011
512.000000	0.052132
511.000000	0.052422
510.000000	0.052580
509.000000	0.052655
508.000000	0.052890
507.000000	0.052999
506.000000	0.053051
505.000000	0.053354
504.000000	0.053590
503.000000	0.053644
502.000000	0.053835
501.000000	0.054043
500.000000	0.054147
499.000000	0.054362
498.000000	0.054592
497.000000	0.054787
496.000000	0.054965
495.000000	0.055079
494.000000	0.055279
493.000000	0.055544
492.000000	0.055693
491.000000	0.055872
490.000000	0.056104
489.000000	0.056265
488.000000	0.056447
487.000000	0.056793
486.000000	0.057081
485.000000	0.057245
484.000000	0.057500
483.000000	0.057875
482.000000	0.058288
481.000000	0.058770
480.000000	0.059193
479.000000	0.059592
478.000000	0.059859
477.000000	0.059974
476.000000	0.060233
475.000000	0.060690
474.000000	0.061084
473.000000	0.061397
472.000000	0.061786
471.000000	0.062126
470.000000	0.062432
469.000000	0.062914
468.000000	0.063383
467.000000	0.063737
466.000000	0.064154
465.000000	0.064594
464.000000	0.065090
463.000000	0.065571
462.000000	0.066005
461.000000	0.066511
460.000000	0.066984
459.000000	0.067340
458.000000	0.067801
457.000000	0.068476
456.000000	0.068887
455.000000	0.069408
454.000000	0.069973
453.000000	0.070417
452.000000	0.070870
451.000000	0.071574
450.000000	0.072187
449.000000	0.072751
448.000000	0.073312
447.000000	0.073776
446.000000	0.074446
445.000000	0.075277
444.000000	0.075879
443.000000	0.076493
442.000000	0.077151
441.000000	0.077732
440.000000	0.078426
439.000000	0.079360
438.000000	0.080054
437.000000	0.080679
436.000000	0.081335
435.000000	0.082093
434.000000	0.082789
433.000000	0.083673
432.000000	0.084580
431.000000	0.085408
430.000000	0.086070
429.000000	0.086823
428.000000	0.087769
427.000000	0.088834
426.000000	0.089503
425.000000	0.090353
424.000000	0.091273
423.000000	0.092071
422.000000	0.093050
421.000000	0.094208
420.000000	0.095040
419.000000	0.095909
418.000000	0.096809
417.000000	0.097827
416.000000	0.098898
415.000000	0.099994
414.000000	0.100946
413.000000	0.102038
412.000000	0.103085
411.000000	0.103999
410.000000	0.105253
409.000000	0.106527
408.000000	0.107483
407.000000	0.108630
406.000000	0.109913
405.000000	0.111001
404.000000	0.112232
403.000000	0.113718
402.000000	0.114842
401.000000	0.116064
400.000000	0.117377
399.000000	0.118751
398.000000	0.120090
397.000000	0.121588
396.000000	0.122835
395.000000	0.124624
394.000000	0.125855
393.000000	0.127224
392.000000	0.128826
391.000000	0.130602
390.000000	0.132021
389.000000	0.133527
388.000000	0.135394
387.000000	0.136956
386.000000	0.138599
385.000000	0.140592
384.000000	0.142366
383.000000	0.144107
382.000000	0.146054
381.000000	0.147826
380.000000	0.149821
379.000000	0.151805
378.000000	0.154227
377.000000	0.159166
376.000000	0.157552
375.000000	0.159807
374.000000	0.161986
373.000000	0.164187
372.000000	0.166337
371.000000	0.168554
370.000000	0.170991
369.000000	0.173400
368.000000	0.175662
367.000000	0.178090
366.000000	0.180561
365.000000	0.182832
364.000000	0.185573
363.000000	0.188268
362.000000	0.190663
361.000000	0.193245
360.000000	0.195941
359.000000	0.198611
358.000000	0.201402
357.000000	0.204281
356.000000	0.207071
355.000000	0.209857
354.000000	0.212703
353.000000	0.215514
352.000000	0.218582
351.000000	0.221561
350.000000	0.224460
349.000000	0.227558
348.000000	0.230673
347.000000	0.233594
346.000000	0.236811
345.000000	0.240019
344.000000	0.243062
343.000000	0.246204
342.000000	0.249447
341.000000	0.252758
340.000000	0.256082
339.000000	0.259464
338.000000	0.262763
337.000000	0.266189
336.000000	0.269497
335.000000	0.272892
334.000000	0.276479
333.000000	0.279943
332.000000	0.283234
331.000000	0.286809
330.000000	0.290354
329.000000	0.293902
328.000000	0.297659
327.000000	0.301530
326.000000	0.305293
325.000000	0.309056
324.000000	0.312837
323.000000	0.316641
322.000000	0.320541
321.000000	0.324576
320.000000	0.328553
319.000000	0.332707
318.000000	0.338802
317.000000	0.343928
316.000000	0.344746
315.000000	0.348711
314.000000	0.353069
313.000000	0.357405
312.000000	0.361775
311.000000	0.366058
310.000000	0.370534
309.000000	0.375034
308.000000	0.379577
307.000000	0.384190
306.000000	0.388799
305.000000	0.393390
304.000000	0.398116
303.000000	0.403095
302.000000	0.408016
301.000000	0.412759
300.000000	0.417705
299.000000	0.422760
298.000000	0.427646
297.000000	0.432713
296.000000	0.437881
295.000000	0.443094
294.000000	0.448330
293.000000	0.453561
292.000000	0.458954
291.000000	0.464507
290.000000	0.470030
289.000000	0.475737
288.000000	0.481510
287.000000	0.486951
286.000000	0.492663
285.000000	0.498764
284.000000	0.504682
283.000000	0.510500
282.000000	0.516385
281.000000	0.522322
280.000000	0.528145
279.000000	0.534060
278.000000	0.540123
277.000000	0.546162
276.000000	0.552068
275.000000	0.558018
274.000000	0.564180
273.000000	0.570479
272.000000	0.576587
271.000000	0.582766
270.000000	0.588913
269.000000	0.594772
268.000000	0.600796
267.000000	0.607065
266.000000	0.613075
265.000000	0.618871
264.000000	0.624749
263.000000	0.630446
262.000000	0.636018
261.000000	0.641713
260.000000	0.647063
259.000000	0.652323
258.000000	0.657507
257.000000	0.662544
256.000000	0.667669
255.000000	0.673026
254.000000	0.678101
253.000000	0.683212
252.000000	0.688590
251.000000	0.693941
250.000000	0.699277
249.000000	0.705314
248.000000	0.711422
247.000000	0.717540
246.000000	0.724202
245.000000	0.731285
244.000000	0.738721
243.000000	0.746724
242.000000	0.754872
241.000000	0.763575
240.000000	0.772460
239.000000	0.781691
238.000000	0.791400
237.000000	0.801662
236.000000	0.811669
235.000000	0.822220
234.000000	0.833135
233.000000	0.844012
232.000000	0.855113
231.000000	0.866880
230.000000	0.878400
229.000000	0.889890
228.000000	0.901569
227.000000	0.913369
226.000000	0.925039
225.000000	0.937296
224.000000	0.949513
223.000000	0.962100
222.000000	0.974907
221.000000	0.987959
220.000000	1.001591
219.000000	1.016198
218.000000	1.030929
217.000000	1.046589
216.000000	1.062965
215.000000	1.080225
214.000000	1.098245
213.000000	1.117856
212.000000	1.138625
211.000000	1.160310
210.000000	1.183192
209.000000	1.207426
208.000000	1.233029
207.000000	1.260459
206.000000	1.290586
205.000000	1.323448
204.000000	1.360050
203.000000	1.401172
202.000000	1.450367
201.000000	1.510155
200.000000	1.584746
