PE UV       SUBTECH     SPECTRUM    ASCII       PEDS        4.00        
   -1
MQ1_1CM_CELL.Sample.Raw.asc
10/10/08
09:17:25.00
10/10/08
09:17:25.00
Hermanni Kaartokallio

200.000000
1
Lambda 650
650N8121101
PerkinElmer UV WinLab 6.0.2.0723 / 1.61.00 Lambda 650

0
0
2
0
0
UV/VIS
1
1
1
uv/vis/nir detector
0
0
0
0
Fix
 
0
0.24
0
0
0
 
 
 
0
 
0
319.2
0
Front
100
 
 
 
0
0
0
 
0
 
 
 
0
 
 
0
0
0
0
0
 
 
 
 
0
0
#HDR
-1
-1
#GR
nm
A
1.0
0.0
800.000000
-1.000000
601
8
10.000000
0.032153
#DATA
800.000000	10.000000
799.000000	0.041916
798.000000	0.042078
797.000000	0.042095
796.000000	0.042376
795.000000	0.042325
794.000000	0.042512
793.000000	0.042515
792.000000	0.042545
791.000000	0.042565
790.000000	0.042809
789.000000	0.042654
788.000000	0.042768
787.000000	0.042955
786.000000	0.042735
785.000000	0.042809
784.000000	0.043155
783.000000	0.043131
782.000000	0.043247
781.000000	0.043232
780.000000	0.043197
779.000000	0.043204
778.000000	0.043474
777.000000	0.043351
776.000000	0.043270
775.000000	0.043268
774.000000	0.043233
773.000000	0.043292
772.000000	0.043411
771.000000	0.043384
770.000000	0.043373
769.000000	0.043336
768.000000	0.043286
767.000000	0.043338
766.000000	0.043398
765.000000	0.043439
764.000000	0.043398
763.000000	0.043336
762.000000	0.043203
761.000000	0.043322
760.000000	0.043422
759.000000	0.043346
758.000000	0.043301
757.000000	0.043256
756.000000	0.043182
755.000000	0.043320
754.000000	0.043501
753.000000	0.043483
752.000000	0.043530
751.000000	0.043583
750.000000	0.043541
749.000000	0.043527
748.000000	0.043708
747.000000	0.043651
746.000000	0.043757
745.000000	0.043749
744.000000	0.043611
743.000000	0.043632
742.000000	0.043696
741.000000	0.043539
740.000000	0.043482
739.000000	0.043293
738.000000	0.043103
737.000000	0.042929
736.000000	0.042850
735.000000	0.042500
734.000000	0.042063
733.000000	0.041563
732.000000	0.040978
731.000000	0.040507
730.000000	0.040118
729.000000	0.039570
728.000000	0.039003
727.000000	0.038520
726.000000	0.038038
725.000000	0.037766
724.000000	0.037632
723.000000	0.037301
722.000000	0.036984
721.000000	0.036646
720.000000	0.036325
719.000000	0.036178
718.000000	0.036032
717.000000	0.035758
716.000000	0.035425
715.000000	0.035086
714.000000	0.034803
713.000000	0.034614
712.000000	0.034464
711.000000	0.034196
710.000000	0.033924
709.000000	0.033632
708.000000	0.033401
707.000000	0.033341
706.000000	0.033237
705.000000	0.033031
704.000000	0.032897
703.000000	0.032765
702.000000	0.032606
701.000000	0.032595
700.000000	0.032579
699.000000	0.032481
698.000000	0.032380
697.000000	0.032205
696.000000	0.032153
695.000000	0.032270
694.000000	0.032275
693.000000	0.032242
692.000000	0.032261
691.000000	0.032229
690.000000	0.032279
689.000000	0.032213
688.000000	0.032491
687.000000	0.032570
686.000000	0.032596
685.000000	0.032788
684.000000	0.032821
683.000000	0.032815
682.000000	0.032821
681.000000	0.032864
680.000000	0.033104
679.000000	0.033239
678.000000	0.033227
677.000000	0.033224
676.000000	0.033181
675.000000	0.033218
674.000000	0.033357
673.000000	0.033380
672.000000	0.033370
671.000000	0.033407
670.000000	0.033285
669.000000	0.033168
668.000000	0.033330
667.000000	0.033342
666.000000	0.033221
665.000000	0.033186
664.000000	0.033085
663.000000	0.033052
662.000000	0.033041
661.000000	0.032941
660.000000	0.032960
659.000000	0.032886
658.000000	0.032766
657.000000	0.032760
656.000000	0.032830
655.000000	0.032744
654.000000	0.032718
653.000000	0.032754
652.000000	0.032632
651.000000	0.032555
650.000000	0.032665
649.000000	0.032643
648.000000	0.032561
647.000000	0.032540
646.000000	0.032543
645.000000	0.032532
644.000000	0.032646
643.000000	0.032565
642.000000	0.032579
641.000000	0.032627
640.000000	0.032462
639.000000	0.032464
638.000000	0.032611
637.000000	0.032645
636.000000	0.032657
635.000000	0.032696
634.000000	0.032585
633.000000	0.032523
632.000000	0.032643
631.000000	0.032675
630.000000	0.032678
629.000000	0.032612
628.000000	0.032569
627.000000	0.032580
626.000000	0.032711
625.000000	0.032734
624.000000	0.032866
623.000000	0.032913
622.000000	0.032823
621.000000	0.032879
620.000000	0.033102
619.000000	0.033034
618.000000	0.033079
617.000000	0.033142
616.000000	0.033148
615.000000	0.033111
614.000000	0.033315
613.000000	0.033347
612.000000	0.033340
611.000000	0.033350
610.000000	0.033211
609.000000	0.033298
608.000000	0.033516
607.000000	0.033473
606.000000	0.033402
605.000000	0.033483
604.000000	0.033319
603.000000	0.033372
602.000000	0.033599
601.000000	0.033511
600.000000	0.033450
599.000000	0.033480
598.000000	0.033287
597.000000	0.033203
596.000000	0.033033
595.000000	0.033190
594.000000	0.033118
593.000000	0.032989
592.000000	0.032905
591.000000	0.032871
590.000000	0.032867
589.000000	0.032899
588.000000	0.032745
587.000000	0.032739
586.000000	0.032725
585.000000	0.032551
584.000000	0.032511
583.000000	0.032707
582.000000	0.032485
581.000000	0.032544
580.000000	0.032528
579.000000	0.032502
578.000000	0.032482
577.000000	0.032560
576.000000	0.032495
575.000000	0.032439
574.000000	0.032506
573.000000	0.032446
572.000000	0.032476
571.000000	0.032625
570.000000	0.032615
569.000000	0.032674
568.000000	0.032723
567.000000	0.032695
566.000000	0.032717
565.000000	0.032976
564.000000	0.032918
563.000000	0.033018
562.000000	0.033119
561.000000	0.033495
560.000000	0.033027
559.000000	0.033070
558.000000	0.033275
557.000000	0.033236
556.000000	0.033312
555.000000	0.033381
554.000000	0.033355
553.000000	0.033492
552.000000	0.033647
551.000000	0.033632
550.000000	0.033610
549.000000	0.033559
548.000000	0.033565
547.000000	0.033623
546.000000	0.033762
545.000000	0.033789
544.000000	0.033846
543.000000	0.033879
542.000000	0.033765
541.000000	0.033981
540.000000	0.034095
539.000000	0.033987
538.000000	0.034003
537.000000	0.034083
536.000000	0.034072
535.000000	0.034140
534.000000	0.034265
533.000000	0.034241
532.000000	0.034272
531.000000	0.034248
530.000000	0.034160
529.000000	0.034243
528.000000	0.034354
527.000000	0.034361
526.000000	0.034477
525.000000	0.034449
524.000000	0.034337
523.000000	0.034411
522.000000	0.034506
521.000000	0.034390
520.000000	0.034393
519.000000	0.034401
518.000000	0.034289
517.000000	0.034327
516.000000	0.034391
515.000000	0.034356
514.000000	0.034350
513.000000	0.034298
512.000000	0.034175
511.000000	0.034214
510.000000	0.034263
509.000000	0.034205
508.000000	0.034201
507.000000	0.034066
506.000000	0.033903
505.000000	0.033973
504.000000	0.034022
503.000000	0.033879
502.000000	0.033832
501.000000	0.033767
500.000000	0.033583
499.000000	0.033618
498.000000	0.033701
497.000000	0.033632
496.000000	0.033529
495.000000	0.033430
494.000000	0.033378
493.000000	0.033385
492.000000	0.033314
491.000000	0.033223
490.000000	0.033163
489.000000	0.032999
488.000000	0.032917
487.000000	0.032990
486.000000	0.032978
485.000000	0.032872
484.000000	0.032850
483.000000	0.032891
482.000000	0.032943
481.000000	0.033189
480.000000	0.033390
479.000000	0.033461
478.000000	0.033363
477.000000	0.033203
476.000000	0.033147
475.000000	0.033256
474.000000	0.033361
473.000000	0.033362
472.000000	0.033388
471.000000	0.033339
470.000000	0.033281
469.000000	0.033445
468.000000	0.033483
467.000000	0.033487
466.000000	0.033536
465.000000	0.033545
464.000000	0.033559
463.000000	0.033644
462.000000	0.033720
461.000000	0.033741
460.000000	0.033767
459.000000	0.033719
458.000000	0.033720
457.000000	0.033909
456.000000	0.033895
455.000000	0.033917
454.000000	0.034007
453.000000	0.033938
452.000000	0.033918
451.000000	0.034107
450.000000	0.034178
449.000000	0.034198
448.000000	0.034208
447.000000	0.034149
446.000000	0.034168
445.000000	0.034390
444.000000	0.034510
443.000000	0.034547
442.000000	0.034547
441.000000	0.034489
440.000000	0.034489
439.000000	0.034794
438.000000	0.034815
437.000000	0.034779
436.000000	0.034852
435.000000	0.034806
434.000000	0.034780
433.000000	0.034989
432.000000	0.035147
431.000000	0.035200
430.000000	0.035139
429.000000	0.035090
428.000000	0.035162
427.000000	0.035342
426.000000	0.035355
425.000000	0.035351
424.000000	0.035404
423.000000	0.035296
422.000000	0.035414
421.000000	0.035695
420.000000	0.035587
419.000000	0.035516
418.000000	0.035627
417.000000	0.035568
416.000000	0.035584
415.000000	0.035764
414.000000	0.035809
413.000000	0.035899
412.000000	0.035699
411.000000	0.035582
410.000000	0.035744
409.000000	0.035856
408.000000	0.035857
407.000000	0.035857
406.000000	0.035942
405.000000	0.035780
404.000000	0.035735
403.000000	0.036092
402.000000	0.035907
401.000000	0.035936
400.000000	0.035979
399.000000	0.035892
398.000000	0.035794
397.000000	0.036088
396.000000	0.035905
395.000000	0.036178
394.000000	0.036030
393.000000	0.035887
392.000000	0.035955
391.000000	0.036128
390.000000	0.035989
389.000000	0.036003
388.000000	0.036113
387.000000	0.036020
386.000000	0.036101
385.000000	0.036378
384.000000	0.036347
383.000000	0.036237
382.000000	0.036331
381.000000	0.036266
380.000000	0.036270
379.000000	0.036467
378.000000	0.036925
377.000000	0.039671
376.000000	0.036005
375.000000	0.036322
374.000000	0.036281
373.000000	0.036394
372.000000	0.036454
371.000000	0.036433
370.000000	0.036442
369.000000	0.036693
368.000000	0.036771
367.000000	0.036794
366.000000	0.036816
365.000000	0.036686
364.000000	0.036902
363.000000	0.037175
362.000000	0.037072
361.000000	0.037168
360.000000	0.037280
359.000000	0.037328
358.000000	0.037418
357.000000	0.037369
356.000000	0.037527
355.000000	0.037494
354.000000	0.037528
353.000000	0.037552
352.000000	0.037803
351.000000	0.037786
350.000000	0.037829
349.000000	0.037925
348.000000	0.037987
347.000000	0.037884
346.000000	0.038156
345.000000	0.038178
344.000000	0.038199
343.000000	0.038283
342.000000	0.038325
341.000000	0.038408
340.000000	0.038580
339.000000	0.038765
338.000000	0.038798
337.000000	0.038810
336.000000	0.038817
335.000000	0.038817
334.000000	0.039032
333.000000	0.039093
332.000000	0.039105
331.000000	0.039224
330.000000	0.039232
329.000000	0.039162
328.000000	0.039359
327.000000	0.039471
326.000000	0.039542
325.000000	0.039533
324.000000	0.039603
323.000000	0.039675
322.000000	0.039778
321.000000	0.039886
320.000000	0.039993
319.000000	0.040152
318.000000	0.042257
317.000000	0.043372
316.000000	0.040123
315.000000	0.040044
314.000000	0.040280
313.000000	0.040285
312.000000	0.040305
311.000000	0.040365
310.000000	0.040465
309.000000	0.040636
308.000000	0.040830
307.000000	0.040894
306.000000	0.040919
305.000000	0.040930
304.000000	0.041048
303.000000	0.041241
302.000000	0.041395
301.000000	0.041458
300.000000	0.041572
299.000000	0.041682
298.000000	0.041732
297.000000	0.041902
296.000000	0.042052
295.000000	0.042142
294.000000	0.042282
293.000000	0.042371
292.000000	0.042449
291.000000	0.042670
290.000000	0.042800
289.000000	0.042904
288.000000	0.043022
287.000000	0.043029
286.000000	0.043132
285.000000	0.043456
284.000000	0.043630
283.000000	0.043740
282.000000	0.043942
281.000000	0.044093
280.000000	0.044144
279.000000	0.044343
278.000000	0.044549
277.000000	0.044690
276.000000	0.044715
275.000000	0.044805
274.000000	0.044916
273.000000	0.045165
272.000000	0.045347
271.000000	0.045493
270.000000	0.045623
269.000000	0.045645
268.000000	0.045711
267.000000	0.045965
266.000000	0.046157
265.000000	0.046333
264.000000	0.046470
263.000000	0.046556
262.000000	0.046618
261.000000	0.046935
260.000000	0.047218
259.000000	0.047412
258.000000	0.047532
257.000000	0.047600
256.000000	0.047830
255.000000	0.048197
254.000000	0.048462
253.000000	0.048592
252.000000	0.048827
251.000000	0.048944
250.000000	0.049178
249.000000	0.049730
248.000000	0.050112
247.000000	0.050305
246.000000	0.050622
245.000000	0.050965
244.000000	0.051305
243.000000	0.051913
242.000000	0.052386
241.000000	0.052802
240.000000	0.053121
239.000000	0.053394
238.000000	0.053915
237.000000	0.054391
236.000000	0.054787
235.000000	0.055267
234.000000	0.055695
233.000000	0.055899
232.000000	0.056201
231.000000	0.056839
230.000000	0.057027
229.000000	0.057371
228.000000	0.057710
227.000000	0.057930
226.000000	0.058341
225.000000	0.058710
224.000000	0.059159
223.000000	0.059512
222.000000	0.059984
221.000000	0.060575
220.000000	0.061284
219.000000	0.062055
218.000000	0.062447
217.000000	0.063279
216.000000	0.064247
215.000000	0.065161
214.000000	0.066240
213.000000	0.067614
212.000000	0.068879
211.000000	0.070285
210.000000	0.071947
209.000000	0.073471
208.000000	0.075210
207.000000	0.077470
206.000000	0.079365
205.000000	0.081828
204.000000	0.084466
203.000000	0.087290
202.000000	0.090374
201.000000	0.094112
200.000000	0.097929
