PE UV       SUBTECH     SPECTRUM    ASCII       PEDS        4.00        
   -1
KY4-000.Sample.Raw.asc
11/05/10
12:37:00.00
11/05/10
12:37:00.00
Hermanni Kaartokallio

200.000000
1
Lambda 650
650N8121101
PerkinElmer UV WinLab 6.0.2.0723 / 1.61.00 Lambda 650

0
0
2
0
0
UV/VIS
1
1
1
uv/vis/nir detector
0
0
0
0
Fix
 
0
0.24
0
0
0
 
 
 
0
 
0
319.2
0
Front
100
 
 
 
0
0
0
 
0
 
 
 
0
 
 
0
0
0
0
0
 
 
 
 
0
0
#HDR
-1
-1
#GR
nm
A
1.0
0.0
800.000000
-1.000000
601
8
2.424460
0.034346
#DATA
800.000000	0.042282
799.000000	0.042294
798.000000	0.042310
797.000000	0.042446
796.000000	0.042651
795.000000	0.042969
794.000000	0.043358
793.000000	0.043669
792.000000	0.043737
791.000000	0.044046
790.000000	0.044193
789.000000	0.044423
788.000000	0.044673
787.000000	0.044874
786.000000	0.045008
785.000000	0.045264
784.000000	0.045461
783.000000	0.045513
782.000000	0.045727
781.000000	0.045707
780.000000	0.045746
779.000000	0.045899
778.000000	0.045850
777.000000	0.045887
776.000000	0.045899
775.000000	0.045948
774.000000	0.045877
773.000000	0.045746
772.000000	0.045876
771.000000	0.045894
770.000000	0.046019
769.000000	0.045936
768.000000	0.046023
767.000000	0.046012
766.000000	0.046051
765.000000	0.045936
764.000000	0.046080
763.000000	0.046106
762.000000	0.046173
761.000000	0.046103
760.000000	0.046269
759.000000	0.046170
758.000000	0.046077
757.000000	0.046110
756.000000	0.045964
755.000000	0.045881
754.000000	0.045836
753.000000	0.045740
752.000000	0.045598
751.000000	0.045522
750.000000	0.045525
749.000000	0.045458
748.000000	0.045424
747.000000	0.045342
746.000000	0.045274
745.000000	0.045194
744.000000	0.045018
743.000000	0.044868
742.000000	0.044831
741.000000	0.044684
740.000000	0.044474
739.000000	0.044361
738.000000	0.044176
737.000000	0.043985
736.000000	0.043753
735.000000	0.043454
734.000000	0.043062
733.000000	0.042543
732.000000	0.042044
731.000000	0.041604
730.000000	0.041286
729.000000	0.040927
728.000000	0.040637
727.000000	0.040286
726.000000	0.039995
725.000000	0.039886
724.000000	0.039727
723.000000	0.039565
722.000000	0.039369
721.000000	0.039111
720.000000	0.038923
719.000000	0.038857
718.000000	0.038627
717.000000	0.038347
716.000000	0.038197
715.000000	0.037951
714.000000	0.037662
713.000000	0.037498
712.000000	0.037279
711.000000	0.037009
710.000000	0.036796
709.000000	0.036649
708.000000	0.036522
707.000000	0.036414
706.000000	0.036331
705.000000	0.036246
704.000000	0.036163
703.000000	0.036108
702.000000	0.036052
701.000000	0.036051
700.000000	0.036120
699.000000	0.036128
698.000000	0.036099
697.000000	0.036110
696.000000	0.036167
695.000000	0.036150
694.000000	0.036123
693.000000	0.036104
692.000000	0.036034
691.000000	0.035973
690.000000	0.035929
689.000000	0.035852
688.000000	0.035743
687.000000	0.035649
686.000000	0.035603
685.000000	0.035504
684.000000	0.035369
683.000000	0.035279
682.000000	0.035198
681.000000	0.035145
680.000000	0.035060
679.000000	0.034962
678.000000	0.034811
677.000000	0.034706
676.000000	0.034587
675.000000	0.034466
674.000000	0.034477
673.000000	0.034459
672.000000	0.034373
671.000000	0.034346
670.000000	0.034393
669.000000	0.034440
668.000000	0.034509
667.000000	0.034604
666.000000	0.034623
665.000000	0.034666
664.000000	0.034751
663.000000	0.034901
662.000000	0.034988
661.000000	0.035141
660.000000	0.035320
659.000000	0.035407
658.000000	0.035419
657.000000	0.035532
656.000000	0.035745
655.000000	0.035844
654.000000	0.035929
653.000000	0.036107
652.000000	0.036156
651.000000	0.036262
650.000000	0.036355
649.000000	0.036467
648.000000	0.036579
647.000000	0.036643
646.000000	0.036548
645.000000	0.036583
644.000000	0.036555
643.000000	0.036611
642.000000	0.036641
641.000000	0.036566
640.000000	0.036518
639.000000	0.036573
638.000000	0.036611
637.000000	0.036577
636.000000	0.036591
635.000000	0.036659
634.000000	0.036622
633.000000	0.036544
632.000000	0.036662
631.000000	0.036717
630.000000	0.036780
629.000000	0.036885
628.000000	0.036903
627.000000	0.036983
626.000000	0.037069
625.000000	0.037157
624.000000	0.037162
623.000000	0.037270
622.000000	0.037255
621.000000	0.037362
620.000000	0.037476
619.000000	0.037535
618.000000	0.037560
617.000000	0.037612
616.000000	0.037586
615.000000	0.037671
614.000000	0.037771
613.000000	0.037923
612.000000	0.037871
611.000000	0.037903
610.000000	0.037957
609.000000	0.038110
608.000000	0.038205
607.000000	0.038218
606.000000	0.038233
605.000000	0.038316
604.000000	0.038131
603.000000	0.038435
602.000000	0.038474
601.000000	0.038493
600.000000	0.038422
599.000000	0.038382
598.000000	0.038325
597.000000	0.038585
596.000000	0.038557
595.000000	0.038621
594.000000	0.038601
593.000000	0.038740
592.000000	0.038780
591.000000	0.038843
590.000000	0.039033
589.000000	0.038925
588.000000	0.039140
587.000000	0.039189
586.000000	0.039155
585.000000	0.039363
584.000000	0.039563
583.000000	0.039592
582.000000	0.039697
581.000000	0.039781
580.000000	0.039796
579.000000	0.040031
578.000000	0.040189
577.000000	0.040181
576.000000	0.040332
575.000000	0.040351
574.000000	0.040436
573.000000	0.040610
572.000000	0.040791
571.000000	0.040797
570.000000	0.040875
569.000000	0.040887
568.000000	0.040915
567.000000	0.041076
566.000000	0.041277
565.000000	0.041231
564.000000	0.041269
563.000000	0.041282
562.000000	0.041238
561.000000	0.041408
560.000000	0.041382
559.000000	0.041381
558.000000	0.041524
557.000000	0.041514
556.000000	0.041523
555.000000	0.041594
554.000000	0.041609
553.000000	0.041623
552.000000	0.041646
551.000000	0.041700
550.000000	0.041732
549.000000	0.041739
548.000000	0.041803
547.000000	0.041857
546.000000	0.041884
545.000000	0.041999
544.000000	0.042028
543.000000	0.041988
542.000000	0.042063
541.000000	0.042233
540.000000	0.042332
539.000000	0.042348
538.000000	0.042436
537.000000	0.042535
536.000000	0.042604
535.000000	0.042715
534.000000	0.042837
533.000000	0.042908
532.000000	0.043002
531.000000	0.043098
530.000000	0.043221
529.000000	0.043371
528.000000	0.043549
527.000000	0.043692
526.000000	0.043846
525.000000	0.043868
524.000000	0.043943
523.000000	0.044173
522.000000	0.044317
521.000000	0.044477
520.000000	0.044638
519.000000	0.044779
518.000000	0.044885
517.000000	0.045052
516.000000	0.045196
515.000000	0.045379
514.000000	0.045537
513.000000	0.045588
512.000000	0.045766
511.000000	0.045977
510.000000	0.046094
509.000000	0.046235
508.000000	0.046423
507.000000	0.046563
506.000000	0.046717
505.000000	0.046917
504.000000	0.047098
503.000000	0.047261
502.000000	0.047485
501.000000	0.047695
500.000000	0.047872
499.000000	0.048103
498.000000	0.048512
497.000000	0.048786
496.000000	0.049015
495.000000	0.049251
494.000000	0.049526
493.000000	0.049837
492.000000	0.050122
491.000000	0.050435
490.000000	0.050744
489.000000	0.050972
488.000000	0.051176
487.000000	0.051482
486.000000	0.051784
485.000000	0.052003
484.000000	0.052269
483.000000	0.052537
482.000000	0.052797
481.000000	0.053070
480.000000	0.053297
479.000000	0.053569
478.000000	0.053849
477.000000	0.054149
476.000000	0.054407
475.000000	0.054649
474.000000	0.054906
473.000000	0.055188
472.000000	0.055482
471.000000	0.055781
470.000000	0.055994
469.000000	0.056317
468.000000	0.056629
467.000000	0.056911
466.000000	0.057225
465.000000	0.057500
464.000000	0.057815
463.000000	0.058108
462.000000	0.058381
461.000000	0.058682
460.000000	0.059070
459.000000	0.059345
458.000000	0.059649
457.000000	0.060046
456.000000	0.060429
455.000000	0.060831
454.000000	0.061160
453.000000	0.061396
452.000000	0.061796
451.000000	0.062231
450.000000	0.062649
449.000000	0.062979
448.000000	0.063407
447.000000	0.063840
446.000000	0.064264
445.000000	0.064746
444.000000	0.065164
443.000000	0.065595
442.000000	0.066104
441.000000	0.066586
440.000000	0.067083
439.000000	0.067637
438.000000	0.068148
437.000000	0.068694
436.000000	0.069215
435.000000	0.069748
434.000000	0.070305
433.000000	0.070978
432.000000	0.071565
431.000000	0.072184
430.000000	0.072901
429.000000	0.073471
428.000000	0.074076
427.000000	0.074803
426.000000	0.075456
425.000000	0.076175
424.000000	0.076857
423.000000	0.077517
422.000000	0.078295
421.000000	0.079138
420.000000	0.079975
419.000000	0.080718
418.000000	0.081544
417.000000	0.082359
416.000000	0.083134
415.000000	0.084100
414.000000	0.084901
413.000000	0.085837
412.000000	0.086811
411.000000	0.087706
410.000000	0.088631
409.000000	0.089607
408.000000	0.090593
407.000000	0.091705
406.000000	0.092716
405.000000	0.093709
404.000000	0.094847
403.000000	0.095967
402.000000	0.097108
401.000000	0.098322
400.000000	0.099517
399.000000	0.100635
398.000000	0.101923
397.000000	0.103209
396.000000	0.104452
395.000000	0.105875
394.000000	0.107329
393.000000	0.108627
392.000000	0.110123
391.000000	0.111673
390.000000	0.112897
389.000000	0.114515
388.000000	0.116022
387.000000	0.117583
386.000000	0.119101
385.000000	0.120836
384.000000	0.122504
383.000000	0.124092
382.000000	0.125983
381.000000	0.127644
380.000000	0.129320
379.000000	0.131166
378.000000	0.133115
377.000000	0.134927
376.000000	0.136755
375.000000	0.138719
374.000000	0.140814
373.000000	0.142676
372.000000	0.144683
371.000000	0.146555
370.000000	0.148769
369.000000	0.150733
368.000000	0.152990
367.000000	0.155102
366.000000	0.157346
365.000000	0.159519
364.000000	0.161909
363.000000	0.164084
362.000000	0.166398
361.000000	0.168714
360.000000	0.171083
359.000000	0.173532
358.000000	0.175916
357.000000	0.178416
356.000000	0.180926
355.000000	0.183422
354.000000	0.185982
353.000000	0.188548
352.000000	0.191306
351.000000	0.194010
350.000000	0.196685
349.000000	0.199426
348.000000	0.202168
347.000000	0.204983
346.000000	0.207939
345.000000	0.210720
344.000000	0.213584
343.000000	0.216454
342.000000	0.219514
341.000000	0.222424
340.000000	0.225439
339.000000	0.228558
338.000000	0.231703
337.000000	0.234875
336.000000	0.238108
335.000000	0.241367
334.000000	0.244686
333.000000	0.247984
332.000000	0.251379
331.000000	0.254902
330.000000	0.258427
329.000000	0.262005
328.000000	0.265577
327.000000	0.269222
326.000000	0.272837
325.000000	0.276505
324.000000	0.280268
323.000000	0.284030
322.000000	0.287921
321.000000	0.291828
320.000000	0.295754
319.000000	0.299724
318.000000	0.304218
317.000000	0.309251
316.000000	0.313255
315.000000	0.317375
314.000000	0.321462
313.000000	0.325695
312.000000	0.330079
311.000000	0.334310
310.000000	0.338536
309.000000	0.342949
308.000000	0.347235
307.000000	0.351604
306.000000	0.356031
305.000000	0.360503
304.000000	0.364897
303.000000	0.369343
302.000000	0.373957
301.000000	0.378720
300.000000	0.383548
299.000000	0.388399
298.000000	0.393354
297.000000	0.398352
296.000000	0.403419
295.000000	0.408574
294.000000	0.413821
293.000000	0.419120
292.000000	0.424477
291.000000	0.430155
290.000000	0.435937
289.000000	0.441655
288.000000	0.447462
287.000000	0.453418
286.000000	0.459488
285.000000	0.465659
284.000000	0.471870
283.000000	0.478265
282.000000	0.484664
281.000000	0.490974
280.000000	0.497385
279.000000	0.503984
278.000000	0.510641
277.000000	0.517288
276.000000	0.524096
275.000000	0.530992
274.000000	0.537847
273.000000	0.544767
272.000000	0.551759
271.000000	0.558644
270.000000	0.565531
269.000000	0.572424
268.000000	0.579255
267.000000	0.586026
266.000000	0.592680
265.000000	0.599207
264.000000	0.605503
263.000000	0.611684
262.000000	0.617841
261.000000	0.623752
260.000000	0.629445
259.000000	0.635011
258.000000	0.640427
257.000000	0.645869
256.000000	0.651206
255.000000	0.656533
254.000000	0.662046
253.000000	0.667520
252.000000	0.672983
251.000000	0.678646
250.000000	0.684478
249.000000	0.690667
248.000000	0.697143
247.000000	0.703980
246.000000	0.711275
245.000000	0.719119
244.000000	0.727685
243.000000	0.736918
242.000000	0.746565
241.000000	0.757019
240.000000	0.768478
239.000000	0.780774
238.000000	0.794187
237.000000	0.808470
236.000000	0.824458
235.000000	0.841905
234.000000	0.861041
233.000000	0.881897
232.000000	0.904821
231.000000	0.929976
230.000000	0.957072
229.000000	0.986930
228.000000	1.019987
227.000000	1.056079
226.000000	1.095678
225.000000	1.138924
224.000000	1.185793
223.000000	1.236125
222.000000	1.290117
221.000000	1.347526
220.000000	1.408190
219.000000	1.471281
218.000000	1.536885
217.000000	1.604553
216.000000	1.673682
215.000000	1.743115
214.000000	1.812462
213.000000	1.881339
212.000000	1.948084
211.000000	2.011759
210.000000	2.072077
209.000000	2.127297
208.000000	2.177714
207.000000	2.225644
206.000000	2.266684
205.000000	2.305489
204.000000	2.337801
203.000000	2.365112
202.000000	2.387029
201.000000	2.406662
200.000000	2.424460
