PE UV       SUBTECH     SPECTRUM    ASCII       PEDS        4.00        
   -1
KY4-03A.Sample.Raw.asc
11/05/10
13:07:23.00
11/05/10
13:07:23.00
Hermanni Kaartokallio

200.000000
1
Lambda 650
650N8121101
PerkinElmer UV WinLab 6.0.2.0723 / 1.61.00 Lambda 650

0
0
2
0
0
UV/VIS
1
1
1
uv/vis/nir detector
0
0
0
0
Fix
 
0
0.24
0
0
0
 
 
 
0
 
0
319.2
0
Front
100
 
 
 
0
0
0
 
0
 
 
 
0
 
 
0
0
0
0
0
 
 
 
 
0
0
#HDR
-1
-1
#GR
nm
A
1.0
0.0
800.000000
-1.000000
601
8
2.532772
0.035386
#DATA
800.000000	0.042699
799.000000	0.042829
798.000000	0.042628
797.000000	0.042857
796.000000	0.043003
795.000000	0.043287
794.000000	0.043636
793.000000	0.043966
792.000000	0.044046
791.000000	0.044355
790.000000	0.044693
789.000000	0.045058
788.000000	0.045211
787.000000	0.045378
786.000000	0.045590
785.000000	0.045762
784.000000	0.046026
783.000000	0.046129
782.000000	0.046305
781.000000	0.046261
780.000000	0.046344
779.000000	0.046310
778.000000	0.046355
777.000000	0.046385
776.000000	0.046312
775.000000	0.046339
774.000000	0.046256
773.000000	0.046183
772.000000	0.046252
771.000000	0.046107
770.000000	0.046057
769.000000	0.045990
768.000000	0.046024
767.000000	0.046019
766.000000	0.046002
765.000000	0.045980
764.000000	0.046192
763.000000	0.046138
762.000000	0.046084
761.000000	0.046013
760.000000	0.046046
759.000000	0.045993
758.000000	0.046031
757.000000	0.046067
756.000000	0.045900
755.000000	0.045725
754.000000	0.045724
753.000000	0.045710
752.000000	0.045511
751.000000	0.045358
750.000000	0.045365
749.000000	0.045292
748.000000	0.045268
747.000000	0.045124
746.000000	0.045075
745.000000	0.045060
744.000000	0.044966
743.000000	0.044906
742.000000	0.044817
741.000000	0.044760
740.000000	0.044642
739.000000	0.044582
738.000000	0.044392
737.000000	0.044169
736.000000	0.043980
735.000000	0.043779
734.000000	0.043358
733.000000	0.042976
732.000000	0.042580
731.000000	0.042269
730.000000	0.042044
729.000000	0.041753
728.000000	0.041478
727.000000	0.041174
726.000000	0.040924
725.000000	0.040866
724.000000	0.040711
723.000000	0.040558
722.000000	0.040353
721.000000	0.040185
720.000000	0.040010
719.000000	0.040012
718.000000	0.039918
717.000000	0.039552
716.000000	0.039357
715.000000	0.039115
714.000000	0.038774
713.000000	0.038529
712.000000	0.038291
711.000000	0.038049
710.000000	0.037843
709.000000	0.037685
708.000000	0.037434
707.000000	0.037230
706.000000	0.037170
705.000000	0.037081
704.000000	0.037023
703.000000	0.036972
702.000000	0.036844
701.000000	0.036781
700.000000	0.036851
699.000000	0.036799
698.000000	0.036741
697.000000	0.036839
696.000000	0.036848
695.000000	0.036801
694.000000	0.036819
693.000000	0.036845
692.000000	0.036795
691.000000	0.036738
690.000000	0.036683
689.000000	0.036625
688.000000	0.036627
687.000000	0.036597
686.000000	0.036567
685.000000	0.036451
684.000000	0.036321
683.000000	0.036182
682.000000	0.036113
681.000000	0.036005
680.000000	0.035936
679.000000	0.035862
678.000000	0.035710
677.000000	0.035620
676.000000	0.035574
675.000000	0.035468
674.000000	0.035439
673.000000	0.035426
672.000000	0.035452
671.000000	0.035397
670.000000	0.035386
669.000000	0.035447
668.000000	0.035528
667.000000	0.035560
666.000000	0.035607
665.000000	0.035704
664.000000	0.035760
663.000000	0.035876
662.000000	0.036057
661.000000	0.036350
660.000000	0.036458
659.000000	0.036530
658.000000	0.036592
657.000000	0.036670
656.000000	0.036964
655.000000	0.037044
654.000000	0.037078
653.000000	0.037262
652.000000	0.037395
651.000000	0.037557
650.000000	0.037620
649.000000	0.037780
648.000000	0.037867
647.000000	0.037913
646.000000	0.037908
645.000000	0.037972
644.000000	0.038020
643.000000	0.038033
642.000000	0.038080
641.000000	0.038019
640.000000	0.038061
639.000000	0.038003
638.000000	0.037974
637.000000	0.037981
636.000000	0.037995
635.000000	0.038006
634.000000	0.037903
633.000000	0.037946
632.000000	0.037986
631.000000	0.037953
630.000000	0.038000
629.000000	0.038166
628.000000	0.038034
627.000000	0.038092
626.000000	0.038128
625.000000	0.038222
624.000000	0.038249
623.000000	0.038317
622.000000	0.038318
621.000000	0.038401
620.000000	0.038493
619.000000	0.038501
618.000000	0.038535
617.000000	0.038547
616.000000	0.038539
615.000000	0.038666
614.000000	0.038739
613.000000	0.038795
612.000000	0.038718
611.000000	0.038792
610.000000	0.038801
609.000000	0.038903
608.000000	0.039056
607.000000	0.039102
606.000000	0.039052
605.000000	0.039106
604.000000	0.038958
603.000000	0.039251
602.000000	0.039229
601.000000	0.039240
600.000000	0.039323
599.000000	0.039255
598.000000	0.039170
597.000000	0.039350
596.000000	0.039354
595.000000	0.039405
594.000000	0.039383
593.000000	0.039601
592.000000	0.039644
591.000000	0.039745
590.000000	0.039912
589.000000	0.039872
588.000000	0.040006
587.000000	0.040134
586.000000	0.040105
585.000000	0.040356
584.000000	0.040416
583.000000	0.040426
582.000000	0.040609
581.000000	0.040717
580.000000	0.040704
579.000000	0.041011
578.000000	0.041115
577.000000	0.041124
576.000000	0.041228
575.000000	0.041319
574.000000	0.041306
573.000000	0.041556
572.000000	0.041707
571.000000	0.041764
570.000000	0.041801
569.000000	0.041814
568.000000	0.041817
567.000000	0.042014
566.000000	0.042119
565.000000	0.042095
564.000000	0.042172
563.000000	0.042188
562.000000	0.042184
561.000000	0.042271
560.000000	0.042235
559.000000	0.042281
558.000000	0.042343
557.000000	0.042375
556.000000	0.042353
555.000000	0.042407
554.000000	0.042431
553.000000	0.042445
552.000000	0.042405
551.000000	0.042441
550.000000	0.042522
549.000000	0.042499
548.000000	0.042493
547.000000	0.042533
546.000000	0.042633
545.000000	0.042644
544.000000	0.042651
543.000000	0.042712
542.000000	0.042796
541.000000	0.042815
540.000000	0.042838
539.000000	0.042924
538.000000	0.042955
537.000000	0.043002
536.000000	0.043131
535.000000	0.043290
534.000000	0.043350
533.000000	0.043379
532.000000	0.043464
531.000000	0.043557
530.000000	0.043599
529.000000	0.043738
528.000000	0.043942
527.000000	0.044046
526.000000	0.044156
525.000000	0.044248
524.000000	0.044294
523.000000	0.044455
522.000000	0.044557
521.000000	0.044760
520.000000	0.044892
519.000000	0.044983
518.000000	0.045114
517.000000	0.045267
516.000000	0.045415
515.000000	0.045631
514.000000	0.045833
513.000000	0.045902
512.000000	0.045895
511.000000	0.046126
510.000000	0.046298
509.000000	0.046377
508.000000	0.046507
507.000000	0.046668
506.000000	0.046841
505.000000	0.047000
504.000000	0.047192
503.000000	0.047386
502.000000	0.047602
501.000000	0.047712
500.000000	0.047847
499.000000	0.048099
498.000000	0.048290
497.000000	0.048520
496.000000	0.048807
495.000000	0.049097
494.000000	0.049252
493.000000	0.049431
492.000000	0.049809
491.000000	0.050059
490.000000	0.050370
489.000000	0.050676
488.000000	0.050760
487.000000	0.050967
486.000000	0.051307
485.000000	0.051552
484.000000	0.051839
483.000000	0.052120
482.000000	0.052295
481.000000	0.052498
480.000000	0.052700
479.000000	0.052949
478.000000	0.053332
477.000000	0.053679
476.000000	0.053706
475.000000	0.053869
474.000000	0.054209
473.000000	0.054523
472.000000	0.054728
471.000000	0.055032
470.000000	0.055246
469.000000	0.055565
468.000000	0.055837
467.000000	0.056103
466.000000	0.056403
465.000000	0.056730
464.000000	0.056988
463.000000	0.057250
462.000000	0.057570
461.000000	0.057803
460.000000	0.058146
459.000000	0.058493
458.000000	0.058642
457.000000	0.059013
456.000000	0.059444
455.000000	0.059697
454.000000	0.059927
453.000000	0.060276
452.000000	0.060529
451.000000	0.060886
450.000000	0.061224
449.000000	0.061549
448.000000	0.061877
447.000000	0.062220
446.000000	0.062555
445.000000	0.063026
444.000000	0.063396
443.000000	0.063728
442.000000	0.064177
441.000000	0.064652
440.000000	0.064995
439.000000	0.065431
438.000000	0.065912
437.000000	0.066402
436.000000	0.066746
435.000000	0.067231
434.000000	0.067674
433.000000	0.068112
432.000000	0.068589
431.000000	0.069194
430.000000	0.069750
429.000000	0.070190
428.000000	0.070663
427.000000	0.071373
426.000000	0.071902
425.000000	0.072382
424.000000	0.073227
423.000000	0.073889
422.000000	0.074245
421.000000	0.074941
420.000000	0.075754
419.000000	0.076261
418.000000	0.076932
417.000000	0.077640
416.000000	0.078250
415.000000	0.079047
414.000000	0.079714
413.000000	0.080516
412.000000	0.081383
411.000000	0.082164
410.000000	0.082689
409.000000	0.083740
408.000000	0.084586
407.000000	0.085407
406.000000	0.086226
405.000000	0.087170
404.000000	0.087953
403.000000	0.088890
402.000000	0.089923
401.000000	0.090979
400.000000	0.091786
399.000000	0.092824
398.000000	0.093824
397.000000	0.094952
396.000000	0.095906
395.000000	0.096978
394.000000	0.098283
393.000000	0.099333
392.000000	0.100394
391.000000	0.101733
390.000000	0.102910
389.000000	0.104204
388.000000	0.105471
387.000000	0.106924
386.000000	0.108085
385.000000	0.109424
384.000000	0.110874
383.000000	0.112480
382.000000	0.113827
381.000000	0.115296
380.000000	0.116521
379.000000	0.118201
378.000000	0.119782
377.000000	0.121397
376.000000	0.122839
375.000000	0.124569
374.000000	0.126210
373.000000	0.127983
372.000000	0.129519
371.000000	0.131049
370.000000	0.133013
369.000000	0.134749
368.000000	0.136562
367.000000	0.138395
366.000000	0.140271
365.000000	0.142136
364.000000	0.144102
363.000000	0.145972
362.000000	0.147958
361.000000	0.149994
360.000000	0.151913
359.000000	0.154040
358.000000	0.156127
357.000000	0.158163
356.000000	0.160264
355.000000	0.162455
354.000000	0.164694
353.000000	0.166791
352.000000	0.169079
351.000000	0.171464
350.000000	0.173702
349.000000	0.175947
348.000000	0.178340
347.000000	0.180768
346.000000	0.183136
345.000000	0.185448
344.000000	0.187909
343.000000	0.190299
342.000000	0.192817
341.000000	0.195390
340.000000	0.197992
339.000000	0.200518
338.000000	0.203126
337.000000	0.205896
336.000000	0.208678
335.000000	0.211219
334.000000	0.213998
333.000000	0.216823
332.000000	0.219686
331.000000	0.222524
330.000000	0.225581
329.000000	0.228529
328.000000	0.231516
327.000000	0.234650
326.000000	0.237731
325.000000	0.240798
324.000000	0.243847
323.000000	0.247019
322.000000	0.250338
321.000000	0.253614
320.000000	0.256919
319.000000	0.260320
318.000000	0.264275
317.000000	0.268653
316.000000	0.272094
315.000000	0.275647
314.000000	0.279215
313.000000	0.282887
312.000000	0.286600
311.000000	0.290311
310.000000	0.294100
309.000000	0.297974
308.000000	0.301765
307.000000	0.305590
306.000000	0.309509
305.000000	0.313510
304.000000	0.317436
303.000000	0.321566
302.000000	0.325900
301.000000	0.330068
300.000000	0.334300
299.000000	0.338800
298.000000	0.343216
297.000000	0.347612
296.000000	0.352314
295.000000	0.356811
294.000000	0.361309
293.000000	0.365758
292.000000	0.370322
291.000000	0.375482
290.000000	0.380614
289.000000	0.385626
288.000000	0.390749
287.000000	0.395825
286.000000	0.401006
285.000000	0.406401
284.000000	0.411741
283.000000	0.417192
282.000000	0.422616
281.000000	0.427970
280.000000	0.433367
279.000000	0.438743
278.000000	0.444247
277.000000	0.449822
276.000000	0.455452
275.000000	0.460936
274.000000	0.466572
273.000000	0.472388
272.000000	0.478049
271.000000	0.483594
270.000000	0.489314
269.000000	0.494898
268.000000	0.500306
267.000000	0.505922
266.000000	0.511411
265.000000	0.516727
264.000000	0.522000
263.000000	0.527258
262.000000	0.532521
261.000000	0.537401
260.000000	0.542213
259.000000	0.547053
258.000000	0.551734
257.000000	0.556291
256.000000	0.560904
255.000000	0.565690
254.000000	0.570331
253.000000	0.575055
252.000000	0.579912
251.000000	0.584835
250.000000	0.589953
249.000000	0.595345
248.000000	0.601172
247.000000	0.607147
246.000000	0.613529
245.000000	0.620459
244.000000	0.628058
243.000000	0.636233
242.000000	0.644594
241.000000	0.654029
240.000000	0.664453
239.000000	0.675484
238.000000	0.687610
237.000000	0.700985
236.000000	0.715669
235.000000	0.731869
234.000000	0.750071
233.000000	0.770092
232.000000	0.792066
231.000000	0.816519
230.000000	0.843638
229.000000	0.873305
228.000000	0.906165
227.000000	0.942424
226.000000	0.982141
225.000000	1.026111
224.000000	1.073889
223.000000	1.125793
222.000000	1.181526
221.000000	1.240860
220.000000	1.303481
219.000000	1.369563
218.000000	1.437914
217.000000	1.508617
216.000000	1.580990
215.000000	1.653652
214.000000	1.727323
213.000000	1.799882
212.000000	1.871998
211.000000	1.941152
210.000000	2.006518
209.000000	2.068175
208.000000	2.127393
207.000000	2.183418
206.000000	2.235291
205.000000	2.283259
204.000000	2.330963
203.000000	2.375713
202.000000	2.421791
201.000000	2.474527
200.000000	2.532772
