PE UV       SUBTECH     SPECTRUM    ASCII       PEDS        4.00        
   -1
KY4-03B.Sample.Raw.asc
11/05/10
13:12:30.00
11/05/10
13:12:30.00
Hermanni Kaartokallio

200.000000
1
Lambda 650
650N8121101
PerkinElmer UV WinLab 6.0.2.0723 / 1.61.00 Lambda 650

0
0
2
0
0
UV/VIS
1
1
1
uv/vis/nir detector
0
0
0
0
Fix
 
0
0.24
0
0
0
 
 
 
0
 
0
319.2
0
Front
100
 
 
 
0
0
0
 
0
 
 
 
0
 
 
0
0
0
0
0
 
 
 
 
0
0
#HDR
-1
-1
#GR
nm
A
1.0
0.0
800.000000
-1.000000
601
8
2.063670
0.033643
#DATA
800.000000	0.041947
799.000000	0.041882
798.000000	0.041808
797.000000	0.042027
796.000000	0.042103
795.000000	0.042336
794.000000	0.042567
793.000000	0.042921
792.000000	0.043020
791.000000	0.043286
790.000000	0.043644
789.000000	0.043897
788.000000	0.044183
787.000000	0.044422
786.000000	0.044678
785.000000	0.044879
784.000000	0.045126
783.000000	0.045206
782.000000	0.045495
781.000000	0.045475
780.000000	0.045478
779.000000	0.045434
778.000000	0.045562
777.000000	0.045402
776.000000	0.045443
775.000000	0.045415
774.000000	0.045306
773.000000	0.045169
772.000000	0.045151
771.000000	0.044957
770.000000	0.044933
769.000000	0.044841
768.000000	0.044908
767.000000	0.044710
766.000000	0.044542
765.000000	0.044594
764.000000	0.044550
763.000000	0.044485
762.000000	0.044509
761.000000	0.044505
760.000000	0.044592
759.000000	0.044510
758.000000	0.044533
757.000000	0.044529
756.000000	0.044345
755.000000	0.044277
754.000000	0.044292
753.000000	0.044265
752.000000	0.044121
751.000000	0.043979
750.000000	0.043864
749.000000	0.043795
748.000000	0.043847
747.000000	0.043736
746.000000	0.043574
745.000000	0.043571
744.000000	0.043504
743.000000	0.043428
742.000000	0.043405
741.000000	0.043312
740.000000	0.043224
739.000000	0.043100
738.000000	0.042900
737.000000	0.042701
736.000000	0.042541
735.000000	0.042296
734.000000	0.041987
733.000000	0.041587
732.000000	0.041191
731.000000	0.040866
730.000000	0.040542
729.000000	0.040273
728.000000	0.040011
727.000000	0.039742
726.000000	0.039539
725.000000	0.039486
724.000000	0.039358
723.000000	0.039198
722.000000	0.038900
721.000000	0.038692
720.000000	0.038531
719.000000	0.038520
718.000000	0.038463
717.000000	0.038268
716.000000	0.038177
715.000000	0.037988
714.000000	0.037717
713.000000	0.037534
712.000000	0.037302
711.000000	0.037021
710.000000	0.036821
709.000000	0.036624
708.000000	0.036425
707.000000	0.036325
706.000000	0.036197
705.000000	0.036014
704.000000	0.035881
703.000000	0.035748
702.000000	0.035639
701.000000	0.035648
700.000000	0.035624
699.000000	0.035559
698.000000	0.035533
697.000000	0.035531
696.000000	0.035520
695.000000	0.035523
694.000000	0.035492
693.000000	0.035458
692.000000	0.035405
691.000000	0.035311
690.000000	0.035218
689.000000	0.035142
688.000000	0.035110
687.000000	0.035045
686.000000	0.034951
685.000000	0.034815
684.000000	0.034753
683.000000	0.034613
682.000000	0.034457
681.000000	0.034422
680.000000	0.034386
679.000000	0.034244
678.000000	0.034098
677.000000	0.034061
676.000000	0.034005
675.000000	0.033861
674.000000	0.033813
673.000000	0.033751
672.000000	0.033696
671.000000	0.033669
670.000000	0.033643
669.000000	0.033682
668.000000	0.033752
667.000000	0.033795
666.000000	0.033881
665.000000	0.033916
664.000000	0.033966
663.000000	0.034087
662.000000	0.034258
661.000000	0.034391
660.000000	0.034554
659.000000	0.034623
658.000000	0.034666
657.000000	0.034762
656.000000	0.034930
655.000000	0.035045
654.000000	0.035118
653.000000	0.035279
652.000000	0.035357
651.000000	0.035472
650.000000	0.035373
649.000000	0.035344
648.000000	0.035379
647.000000	0.035441
646.000000	0.035382
645.000000	0.035348
644.000000	0.035403
643.000000	0.035457
642.000000	0.035386
641.000000	0.035270
640.000000	0.035203
639.000000	0.035152
638.000000	0.035160
637.000000	0.035096
636.000000	0.035038
635.000000	0.035022
634.000000	0.035031
633.000000	0.034905
632.000000	0.034910
631.000000	0.034897
630.000000	0.034909
629.000000	0.034949
628.000000	0.034940
627.000000	0.034991
626.000000	0.034974
625.000000	0.035003
624.000000	0.034980
623.000000	0.035023
622.000000	0.035009
621.000000	0.034996
620.000000	0.035026
619.000000	0.035040
618.000000	0.035069
617.000000	0.035129
616.000000	0.035083
615.000000	0.035156
614.000000	0.035200
613.000000	0.035259
612.000000	0.035172
611.000000	0.035196
610.000000	0.035215
609.000000	0.035211
608.000000	0.035384
607.000000	0.035353
606.000000	0.035352
605.000000	0.035391
604.000000	0.035275
603.000000	0.035489
602.000000	0.035449
601.000000	0.035404
600.000000	0.035408
599.000000	0.035329
598.000000	0.035189
597.000000	0.035462
596.000000	0.035343
595.000000	0.035249
594.000000	0.035247
593.000000	0.035332
592.000000	0.035395
591.000000	0.035422
590.000000	0.035578
589.000000	0.035434
588.000000	0.035579
587.000000	0.035610
586.000000	0.035521
585.000000	0.035717
584.000000	0.035800
583.000000	0.035792
582.000000	0.035799
581.000000	0.035820
580.000000	0.035810
579.000000	0.036022
578.000000	0.036137
577.000000	0.036110
576.000000	0.036081
575.000000	0.036138
574.000000	0.036135
573.000000	0.036192
572.000000	0.036391
571.000000	0.036385
570.000000	0.036415
569.000000	0.036277
568.000000	0.036196
567.000000	0.036417
566.000000	0.036455
565.000000	0.036267
564.000000	0.036297
563.000000	0.036232
562.000000	0.036188
561.000000	0.036248
560.000000	0.036189
559.000000	0.036131
558.000000	0.036146
557.000000	0.036141
556.000000	0.036006
555.000000	0.036011
554.000000	0.035965
553.000000	0.035896
552.000000	0.035749
551.000000	0.035778
550.000000	0.035818
549.000000	0.035723
548.000000	0.035674
547.000000	0.035597
546.000000	0.035641
545.000000	0.035644
544.000000	0.035612
543.000000	0.035553
542.000000	0.035539
541.000000	0.035569
540.000000	0.035562
539.000000	0.035516
538.000000	0.035399
537.000000	0.035375
536.000000	0.035418
535.000000	0.035526
534.000000	0.035576
533.000000	0.035622
532.000000	0.035574
531.000000	0.035621
530.000000	0.035635
529.000000	0.035712
528.000000	0.035807
527.000000	0.035807
526.000000	0.035820
525.000000	0.035826
524.000000	0.035788
523.000000	0.035895
522.000000	0.035972
521.000000	0.036035
520.000000	0.036053
519.000000	0.036084
518.000000	0.036145
517.000000	0.036225
516.000000	0.036218
515.000000	0.036248
514.000000	0.036384
513.000000	0.036390
512.000000	0.036384
511.000000	0.036463
510.000000	0.036456
509.000000	0.036431
508.000000	0.036428
507.000000	0.036507
506.000000	0.036565
505.000000	0.036588
504.000000	0.036621
503.000000	0.036679
502.000000	0.036776
501.000000	0.036849
500.000000	0.036888
499.000000	0.036990
498.000000	0.037093
497.000000	0.037167
496.000000	0.037317
495.000000	0.037408
494.000000	0.037471
493.000000	0.037583
492.000000	0.037761
491.000000	0.037885
490.000000	0.037991
489.000000	0.038119
488.000000	0.038191
487.000000	0.038316
486.000000	0.038450
485.000000	0.038556
484.000000	0.038651
483.000000	0.038711
482.000000	0.038808
481.000000	0.038937
480.000000	0.038964
479.000000	0.039027
478.000000	0.039159
477.000000	0.039220
476.000000	0.039247
475.000000	0.039323
474.000000	0.039403
473.000000	0.039490
472.000000	0.039529
471.000000	0.039631
470.000000	0.039742
469.000000	0.039830
468.000000	0.039871
467.000000	0.039936
466.000000	0.040038
465.000000	0.040046
464.000000	0.040118
463.000000	0.040213
462.000000	0.040275
461.000000	0.040318
460.000000	0.040467
459.000000	0.040468
458.000000	0.040472
457.000000	0.040635
456.000000	0.040765
455.000000	0.040785
454.000000	0.040738
453.000000	0.040760
452.000000	0.040821
451.000000	0.040874
450.000000	0.040946
449.000000	0.041021
448.000000	0.041066
447.000000	0.041049
446.000000	0.041122
445.000000	0.041220
444.000000	0.041317
443.000000	0.041322
442.000000	0.041440
441.000000	0.041514
440.000000	0.041498
439.000000	0.041638
438.000000	0.041751
437.000000	0.041866
436.000000	0.041907
435.000000	0.041897
434.000000	0.042113
433.000000	0.042237
432.000000	0.042265
431.000000	0.042397
430.000000	0.042571
429.000000	0.042555
428.000000	0.042741
427.000000	0.042970
426.000000	0.042986
425.000000	0.043034
424.000000	0.043193
423.000000	0.043368
422.000000	0.043441
421.000000	0.043572
420.000000	0.043863
419.000000	0.043967
418.000000	0.044050
417.000000	0.044230
416.000000	0.044378
415.000000	0.044545
414.000000	0.044619
413.000000	0.044845
412.000000	0.045255
411.000000	0.045258
410.000000	0.045324
409.000000	0.045647
408.000000	0.045800
407.000000	0.045856
406.000000	0.046127
405.000000	0.046236
404.000000	0.046509
403.000000	0.046684
402.000000	0.046981
401.000000	0.047169
400.000000	0.047432
399.000000	0.047541
398.000000	0.047826
397.000000	0.048149
396.000000	0.048239
395.000000	0.048551
394.000000	0.048973
393.000000	0.049119
392.000000	0.049413
391.000000	0.049790
390.000000	0.050050
389.000000	0.050280
388.000000	0.050646
387.000000	0.050951
386.000000	0.051308
385.000000	0.051576
384.000000	0.052063
383.000000	0.052410
382.000000	0.052759
381.000000	0.053039
380.000000	0.053523
379.000000	0.053926
378.000000	0.054036
377.000000	0.054555
376.000000	0.055009
375.000000	0.055281
374.000000	0.055830
373.000000	0.056282
372.000000	0.056603
371.000000	0.056948
370.000000	0.057525
369.000000	0.057992
368.000000	0.058416
367.000000	0.058780
366.000000	0.059347
365.000000	0.059798
364.000000	0.060221
363.000000	0.060610
362.000000	0.061226
361.000000	0.061595
360.000000	0.062024
359.000000	0.062647
358.000000	0.063099
357.000000	0.063554
356.000000	0.064023
355.000000	0.064594
354.000000	0.065060
353.000000	0.065470
352.000000	0.066024
351.000000	0.066628
350.000000	0.067178
349.000000	0.067570
348.000000	0.068218
347.000000	0.068739
346.000000	0.069292
345.000000	0.069844
344.000000	0.070462
343.000000	0.070948
342.000000	0.071478
341.000000	0.072081
340.000000	0.072689
339.000000	0.073284
338.000000	0.073897
337.000000	0.074509
336.000000	0.075171
335.000000	0.075912
334.000000	0.076597
333.000000	0.077304
332.000000	0.077763
331.000000	0.078485
330.000000	0.079322
329.000000	0.079962
328.000000	0.080655
327.000000	0.081476
326.000000	0.082244
325.000000	0.083096
324.000000	0.083744
323.000000	0.084419
322.000000	0.085280
321.000000	0.086152
320.000000	0.087003
319.000000	0.087956
318.000000	0.089410
317.000000	0.091197
316.000000	0.092003
315.000000	0.092899
314.000000	0.093852
313.000000	0.095037
312.000000	0.096164
311.000000	0.097078
310.000000	0.098164
309.000000	0.099371
308.000000	0.100425
307.000000	0.101508
306.000000	0.102742
305.000000	0.103907
304.000000	0.104961
303.000000	0.106044
302.000000	0.107331
301.000000	0.108651
300.000000	0.109819
299.000000	0.111186
298.000000	0.112690
297.000000	0.114057
296.000000	0.115468
295.000000	0.117007
294.000000	0.118479
293.000000	0.119875
292.000000	0.121445
291.000000	0.123228
290.000000	0.124921
289.000000	0.126531
288.000000	0.128301
287.000000	0.129947
286.000000	0.131531
285.000000	0.133297
284.000000	0.135081
283.000000	0.136794
282.000000	0.138553
281.000000	0.140372
280.000000	0.142162
279.000000	0.143867
278.000000	0.145685
277.000000	0.147538
276.000000	0.149308
275.000000	0.151028
274.000000	0.152898
273.000000	0.154843
272.000000	0.156612
271.000000	0.158276
270.000000	0.160189
269.000000	0.162103
268.000000	0.163748
267.000000	0.165538
266.000000	0.167389
265.000000	0.169081
264.000000	0.170674
263.000000	0.172305
262.000000	0.174063
261.000000	0.175481
260.000000	0.176911
259.000000	0.178470
258.000000	0.179938
257.000000	0.181293
256.000000	0.182685
255.000000	0.184144
254.000000	0.185562
253.000000	0.186930
252.000000	0.188417
251.000000	0.189988
250.000000	0.191440
249.000000	0.192987
248.000000	0.194774
247.000000	0.196473
246.000000	0.198309
245.000000	0.200363
244.000000	0.202657
243.000000	0.204997
242.000000	0.207387
241.000000	0.210142
240.000000	0.213177
239.000000	0.216047
238.000000	0.219370
237.000000	0.222883
236.000000	0.226637
235.000000	0.230665
234.000000	0.235196
233.000000	0.240014
232.000000	0.245108
231.000000	0.250527
230.000000	0.256565
229.000000	0.262997
228.000000	0.269707
227.000000	0.277145
226.000000	0.285394
225.000000	0.294372
224.000000	0.303909
223.000000	0.314602
222.000000	0.326329
221.000000	0.338921
220.000000	0.353000
219.000000	0.368644
218.000000	0.385735
217.000000	0.404579
216.000000	0.426562
215.000000	0.451490
214.000000	0.479674
213.000000	0.512232
212.000000	0.549630
211.000000	0.592332
210.000000	0.641197
209.000000	0.696706
208.000000	0.760838
207.000000	0.835621
206.000000	0.923073
205.000000	1.025931
204.000000	1.150737
203.000000	1.304145
202.000000	1.496750
201.000000	1.742704
200.000000	2.063670
