PE UV       SUBTECH     SPECTRUM    ASCII       PEDS        4.00        
   -1
KY4-04A.Sample.Raw.asc
11/05/10
13:17:08.00
11/05/10
13:17:08.00
Hermanni Kaartokallio

200.000000
1
Lambda 650
650N8121101
PerkinElmer UV WinLab 6.0.2.0723 / 1.61.00 Lambda 650

0
0
2
0
0
UV/VIS
1
1
1
uv/vis/nir detector
0
0
0
0
Fix
 
0
0.24
0
0
0
 
 
 
0
 
0
319.2
0
Front
100
 
 
 
0
0
0
 
0
 
 
 
0
 
 
0
0
0
0
0
 
 
 
 
0
0
#HDR
-1
-1
#GR
nm
A
1.0
0.0
800.000000
-1.000000
601
8
2.423034
0.035147
#DATA
800.000000	0.042832
799.000000	0.042629
798.000000	0.042713
797.000000	0.042903
796.000000	0.043017
795.000000	0.043201
794.000000	0.043524
793.000000	0.043986
792.000000	0.044142
791.000000	0.044314
790.000000	0.044676
789.000000	0.044948
788.000000	0.045240
787.000000	0.045494
786.000000	0.045744
785.000000	0.045907
784.000000	0.046163
783.000000	0.046174
782.000000	0.046355
781.000000	0.046333
780.000000	0.046338
779.000000	0.046453
778.000000	0.046544
777.000000	0.046477
776.000000	0.046412
775.000000	0.046408
774.000000	0.046274
773.000000	0.046307
772.000000	0.046326
771.000000	0.046158
770.000000	0.046078
769.000000	0.045987
768.000000	0.045926
767.000000	0.045982
766.000000	0.046041
765.000000	0.045960
764.000000	0.046111
763.000000	0.046022
762.000000	0.046065
761.000000	0.046141
760.000000	0.046266
759.000000	0.046149
758.000000	0.046164
757.000000	0.046242
756.000000	0.046105
755.000000	0.045933
754.000000	0.045943
753.000000	0.046002
752.000000	0.045847
751.000000	0.045706
750.000000	0.045689
749.000000	0.045587
748.000000	0.045673
747.000000	0.045622
746.000000	0.045521
745.000000	0.045502
744.000000	0.045449
743.000000	0.045389
742.000000	0.045354
741.000000	0.045250
740.000000	0.045053
739.000000	0.044960
738.000000	0.044714
737.000000	0.044421
736.000000	0.044314
735.000000	0.043984
734.000000	0.043694
733.000000	0.043359
732.000000	0.042946
731.000000	0.042537
730.000000	0.042271
729.000000	0.042001
728.000000	0.041742
727.000000	0.041416
726.000000	0.041214
725.000000	0.041094
724.000000	0.040979
723.000000	0.040817
722.000000	0.040567
721.000000	0.040365
720.000000	0.040207
719.000000	0.040103
718.000000	0.039978
717.000000	0.039719
716.000000	0.039456
715.000000	0.039185
714.000000	0.038938
713.000000	0.038715
712.000000	0.038422
711.000000	0.038097
710.000000	0.037908
709.000000	0.037714
708.000000	0.037450
707.000000	0.037299
706.000000	0.037173
705.000000	0.037050
704.000000	0.036948
703.000000	0.036897
702.000000	0.036816
701.000000	0.036727
700.000000	0.036690
699.000000	0.036642
698.000000	0.036619
697.000000	0.036667
696.000000	0.036724
695.000000	0.036703
694.000000	0.036655
693.000000	0.036656
692.000000	0.036638
691.000000	0.036542
690.000000	0.036433
689.000000	0.036418
688.000000	0.036400
687.000000	0.036332
686.000000	0.036246
685.000000	0.036163
684.000000	0.036077
683.000000	0.035936
682.000000	0.035793
681.000000	0.035798
680.000000	0.035786
679.000000	0.035648
678.000000	0.035510
677.000000	0.035388
676.000000	0.035278
675.000000	0.035213
674.000000	0.035218
673.000000	0.035170
672.000000	0.035147
671.000000	0.035188
670.000000	0.035212
669.000000	0.035269
668.000000	0.035348
667.000000	0.035366
666.000000	0.035490
665.000000	0.035560
664.000000	0.035712
663.000000	0.035888
662.000000	0.036041
661.000000	0.036199
660.000000	0.036354
659.000000	0.036529
658.000000	0.036629
657.000000	0.036725
656.000000	0.036945
655.000000	0.037069
654.000000	0.037184
653.000000	0.037389
652.000000	0.037484
651.000000	0.037654
650.000000	0.037764
649.000000	0.037866
648.000000	0.038000
647.000000	0.038071
646.000000	0.038029
645.000000	0.038074
644.000000	0.038078
643.000000	0.038054
642.000000	0.038071
641.000000	0.038053
640.000000	0.038008
639.000000	0.037912
638.000000	0.037977
637.000000	0.037944
636.000000	0.037925
635.000000	0.037985
634.000000	0.037922
633.000000	0.037875
632.000000	0.037945
631.000000	0.037966
630.000000	0.038023
629.000000	0.038130
628.000000	0.038124
627.000000	0.038099
626.000000	0.038139
625.000000	0.038192
624.000000	0.038262
623.000000	0.038329
622.000000	0.038326
621.000000	0.038350
620.000000	0.038420
619.000000	0.038467
618.000000	0.038439
617.000000	0.038439
616.000000	0.038461
615.000000	0.038495
614.000000	0.038534
613.000000	0.038644
612.000000	0.038480
611.000000	0.038590
610.000000	0.038623
609.000000	0.038725
608.000000	0.038840
607.000000	0.038833
606.000000	0.038879
605.000000	0.038880
604.000000	0.038800
603.000000	0.038974
602.000000	0.038978
601.000000	0.039034
600.000000	0.039063
599.000000	0.038976
598.000000	0.038913
597.000000	0.039151
596.000000	0.039085
595.000000	0.039162
594.000000	0.039172
593.000000	0.039256
592.000000	0.039323
591.000000	0.039484
590.000000	0.039676
589.000000	0.039572
588.000000	0.039752
587.000000	0.039779
586.000000	0.039757
585.000000	0.040033
584.000000	0.040135
583.000000	0.040162
582.000000	0.040235
581.000000	0.040381
580.000000	0.040346
579.000000	0.040649
578.000000	0.040719
577.000000	0.040756
576.000000	0.040865
575.000000	0.040905
574.000000	0.040986
573.000000	0.041178
572.000000	0.041317
571.000000	0.041365
570.000000	0.041323
569.000000	0.041309
568.000000	0.041299
567.000000	0.041476
566.000000	0.041629
565.000000	0.041556
564.000000	0.041615
563.000000	0.041628
562.000000	0.041561
561.000000	0.041719
560.000000	0.041731
559.000000	0.041663
558.000000	0.041764
557.000000	0.041789
556.000000	0.041815
555.000000	0.041887
554.000000	0.041892
553.000000	0.041926
552.000000	0.041887
551.000000	0.041939
550.000000	0.042009
549.000000	0.041996
548.000000	0.042042
547.000000	0.042108
546.000000	0.042122
545.000000	0.042075
544.000000	0.042091
543.000000	0.042147
542.000000	0.042225
541.000000	0.042290
540.000000	0.042256
539.000000	0.042312
538.000000	0.042300
537.000000	0.042293
536.000000	0.042376
535.000000	0.042546
534.000000	0.042587
533.000000	0.042594
532.000000	0.042657
531.000000	0.042779
530.000000	0.042831
529.000000	0.042885
528.000000	0.043059
527.000000	0.043077
526.000000	0.043172
525.000000	0.043292
524.000000	0.043319
523.000000	0.043417
522.000000	0.043547
521.000000	0.043703
520.000000	0.043775
519.000000	0.043881
518.000000	0.044016
517.000000	0.044142
516.000000	0.044186
515.000000	0.044346
514.000000	0.044512
513.000000	0.044578
512.000000	0.044686
511.000000	0.044864
510.000000	0.044950
509.000000	0.045043
508.000000	0.045164
507.000000	0.045311
506.000000	0.045458
505.000000	0.045618
504.000000	0.045791
503.000000	0.045954
502.000000	0.046105
501.000000	0.046233
500.000000	0.046391
499.000000	0.046550
498.000000	0.046702
497.000000	0.046863
496.000000	0.047140
495.000000	0.047362
494.000000	0.047527
493.000000	0.047736
492.000000	0.047988
491.000000	0.048206
490.000000	0.048464
489.000000	0.048692
488.000000	0.048849
487.000000	0.049080
486.000000	0.049320
485.000000	0.049520
484.000000	0.049746
483.000000	0.049901
482.000000	0.050125
481.000000	0.050374
480.000000	0.050501
479.000000	0.050656
478.000000	0.050933
477.000000	0.051190
476.000000	0.051339
475.000000	0.051550
474.000000	0.051810
473.000000	0.052022
472.000000	0.052193
471.000000	0.052493
470.000000	0.052765
469.000000	0.052979
468.000000	0.053210
467.000000	0.053518
466.000000	0.053754
465.000000	0.053934
464.000000	0.054200
463.000000	0.054483
462.000000	0.054696
461.000000	0.054910
460.000000	0.055261
459.000000	0.055500
458.000000	0.055666
457.000000	0.056022
456.000000	0.056369
455.000000	0.056629
454.000000	0.056799
453.000000	0.057039
452.000000	0.057338
451.000000	0.057620
450.000000	0.057885
449.000000	0.058191
448.000000	0.058484
447.000000	0.058698
446.000000	0.058949
445.000000	0.059319
444.000000	0.059601
443.000000	0.059888
442.000000	0.060293
441.000000	0.060665
440.000000	0.060873
439.000000	0.061268
438.000000	0.061685
437.000000	0.062058
436.000000	0.062315
435.000000	0.062686
434.000000	0.063147
433.000000	0.063587
432.000000	0.063848
431.000000	0.064328
430.000000	0.064794
429.000000	0.065059
428.000000	0.065587
427.000000	0.066121
426.000000	0.066518
425.000000	0.066867
424.000000	0.067407
423.000000	0.067917
422.000000	0.068377
421.000000	0.068884
420.000000	0.069498
419.000000	0.070061
418.000000	0.070555
417.000000	0.071177
416.000000	0.071728
415.000000	0.072288
414.000000	0.072724
413.000000	0.073369
412.000000	0.074147
411.000000	0.074698
410.000000	0.075209
409.000000	0.075966
408.000000	0.076609
407.000000	0.077226
406.000000	0.077954
405.000000	0.078597
404.000000	0.079328
403.000000	0.079969
402.000000	0.080898
401.000000	0.081696
400.000000	0.082371
399.000000	0.083029
398.000000	0.083883
397.000000	0.084822
396.000000	0.085443
395.000000	0.086332
394.000000	0.087354
393.000000	0.088136
392.000000	0.089086
391.000000	0.090093
390.000000	0.090995
389.000000	0.091943
388.000000	0.093023
387.000000	0.093968
386.000000	0.095060
385.000000	0.096044
384.000000	0.097170
383.000000	0.098316
382.000000	0.099341
381.000000	0.100477
380.000000	0.101760
379.000000	0.102919
378.000000	0.104041
377.000000	0.105307
376.000000	0.106518
375.000000	0.107768
374.000000	0.109134
373.000000	0.110568
372.000000	0.111728
371.000000	0.112974
370.000000	0.114454
369.000000	0.115864
368.000000	0.117270
367.000000	0.118624
366.000000	0.120198
365.000000	0.121733
364.000000	0.123259
363.000000	0.124672
362.000000	0.126265
361.000000	0.127802
360.000000	0.129241
359.000000	0.131006
358.000000	0.132581
357.000000	0.134172
356.000000	0.135849
355.000000	0.137640
354.000000	0.139303
353.000000	0.140875
352.000000	0.142738
351.000000	0.144677
350.000000	0.146392
349.000000	0.148023
348.000000	0.150036
347.000000	0.151830
346.000000	0.153693
345.000000	0.155517
344.000000	0.157543
343.000000	0.159337
342.000000	0.161271
341.000000	0.163236
340.000000	0.165335
339.000000	0.167260
338.000000	0.169269
337.000000	0.171410
336.000000	0.173528
335.000000	0.175572
334.000000	0.177704
333.000000	0.179962
332.000000	0.182114
331.000000	0.184282
330.000000	0.186648
329.000000	0.188970
328.000000	0.191286
327.000000	0.193743
326.000000	0.196088
325.000000	0.198507
324.000000	0.200856
323.000000	0.203314
322.000000	0.205952
321.000000	0.208486
320.000000	0.211065
319.000000	0.213686
318.000000	0.216939
317.000000	0.220676
316.000000	0.223404
315.000000	0.226093
314.000000	0.228882
313.000000	0.231927
312.000000	0.234857
311.000000	0.237624
310.000000	0.240618
309.000000	0.243663
308.000000	0.246590
307.000000	0.249636
306.000000	0.252735
305.000000	0.255904
304.000000	0.259045
303.000000	0.262212
302.000000	0.265554
301.000000	0.268905
300.000000	0.272233
299.000000	0.275638
298.000000	0.279166
297.000000	0.282607
296.000000	0.286191
295.000000	0.289905
294.000000	0.293527
293.000000	0.297222
292.000000	0.301054
291.000000	0.305145
290.000000	0.309163
289.000000	0.313085
288.000000	0.317188
287.000000	0.321264
286.000000	0.325241
285.000000	0.329362
284.000000	0.333587
283.000000	0.337891
282.000000	0.341956
281.000000	0.346162
280.000000	0.350454
279.000000	0.354453
278.000000	0.358656
277.000000	0.363044
276.000000	0.367092
275.000000	0.371076
274.000000	0.375424
273.000000	0.379889
272.000000	0.384298
271.000000	0.388648
270.000000	0.393066
269.000000	0.397508
268.000000	0.401750
267.000000	0.406076
266.000000	0.410449
265.000000	0.414658
264.000000	0.418791
263.000000	0.422953
262.000000	0.427093
261.000000	0.430948
260.000000	0.434731
259.000000	0.438645
258.000000	0.442407
257.000000	0.446049
256.000000	0.449718
255.000000	0.453546
254.000000	0.457214
253.000000	0.460908
252.000000	0.464737
251.000000	0.468767
250.000000	0.472720
249.000000	0.476908
248.000000	0.481491
247.000000	0.486184
246.000000	0.491189
245.000000	0.496697
244.000000	0.502658
243.000000	0.509087
242.000000	0.515759
241.000000	0.523187
240.000000	0.531331
239.000000	0.539824
238.000000	0.549263
237.000000	0.559523
236.000000	0.570845
235.000000	0.583200
234.000000	0.596955
233.000000	0.612275
232.000000	0.629042
231.000000	0.647472
230.000000	0.667663
229.000000	0.689967
228.000000	0.714665
227.000000	0.741970
226.000000	0.772250
225.000000	0.805307
224.000000	0.841211
223.000000	0.880385
222.000000	0.922494
221.000000	0.966529
220.000000	1.014057
219.000000	1.064137
218.000000	1.116652
217.000000	1.170813
216.000000	1.227428
215.000000	1.285077
214.000000	1.344034
213.000000	1.404694
212.000000	1.465091
211.000000	1.525409
210.000000	1.585027
209.000000	1.644970
208.000000	1.705697
207.000000	1.767113
206.000000	1.829554
205.000000	1.896426
204.000000	1.968784
203.000000	2.050880
202.000000	2.147206
201.000000	2.267152
200.000000	2.423034
