PE UV       SUBTECH     SPECTRUM    ASCII       PEDS        4.00        
   -1
KY4-01B.Sample.Raw.asc
11/05/10
12:46:45.00
11/05/10
12:46:45.00
Hermanni Kaartokallio

200.000000
1
Lambda 650
650N8121101
PerkinElmer UV WinLab 6.0.2.0723 / 1.61.00 Lambda 650

0
0
2
0
0
UV/VIS
1
1
1
uv/vis/nir detector
0
0
0
0
Fix
 
0
0.24
0
0
0
 
 
 
0
 
0
319.2
0
Front
100
 
 
 
0
0
0
 
0
 
 
 
0
 
 
0
0
0
0
0
 
 
 
 
0
0
#HDR
-1
-1
#GR
nm
A
1.0
0.0
800.000000
-1.000000
601
8
2.409594
0.035666
#DATA
800.000000	0.043084
799.000000	0.043100
798.000000	0.043147
797.000000	0.043348
796.000000	0.043353
795.000000	0.043667
794.000000	0.044072
793.000000	0.044365
792.000000	0.044261
791.000000	0.044625
790.000000	0.045017
789.000000	0.045282
788.000000	0.045372
787.000000	0.045737
786.000000	0.046037
785.000000	0.046049
784.000000	0.046243
783.000000	0.046426
782.000000	0.046618
781.000000	0.046503
780.000000	0.046589
779.000000	0.046710
778.000000	0.046767
777.000000	0.046670
776.000000	0.046696
775.000000	0.046767
774.000000	0.046564
773.000000	0.046486
772.000000	0.046637
771.000000	0.046437
770.000000	0.046405
769.000000	0.046422
768.000000	0.046445
767.000000	0.046369
766.000000	0.046462
765.000000	0.046611
764.000000	0.046679
763.000000	0.046538
762.000000	0.046598
761.000000	0.046678
760.000000	0.046724
759.000000	0.046605
758.000000	0.046733
757.000000	0.046727
756.000000	0.046486
755.000000	0.046398
754.000000	0.046422
753.000000	0.046332
752.000000	0.046076
751.000000	0.046001
750.000000	0.046041
749.000000	0.045909
748.000000	0.045885
747.000000	0.045880
746.000000	0.045795
745.000000	0.045653
744.000000	0.045540
743.000000	0.045528
742.000000	0.045444
741.000000	0.045329
740.000000	0.045259
739.000000	0.045203
738.000000	0.044886
737.000000	0.044697
736.000000	0.044529
735.000000	0.044204
734.000000	0.043712
733.000000	0.043321
732.000000	0.043005
731.000000	0.042628
730.000000	0.042249
729.000000	0.042002
728.000000	0.041755
727.000000	0.041372
726.000000	0.041175
725.000000	0.041139
724.000000	0.040912
723.000000	0.040706
722.000000	0.040516
721.000000	0.040353
720.000000	0.040141
719.000000	0.040016
718.000000	0.039908
717.000000	0.039621
716.000000	0.039293
715.000000	0.039047
714.000000	0.038864
713.000000	0.038621
712.000000	0.038370
711.000000	0.038159
710.000000	0.037956
709.000000	0.037731
708.000000	0.037549
707.000000	0.037545
706.000000	0.037444
705.000000	0.037286
704.000000	0.037273
703.000000	0.037273
702.000000	0.037199
701.000000	0.037195
700.000000	0.037300
699.000000	0.037255
698.000000	0.037118
697.000000	0.037159
696.000000	0.037264
695.000000	0.037263
694.000000	0.037208
693.000000	0.037256
692.000000	0.037193
691.000000	0.037060
690.000000	0.037011
689.000000	0.037040
688.000000	0.036971
687.000000	0.036862
686.000000	0.036851
685.000000	0.036744
684.000000	0.036629
683.000000	0.036570
682.000000	0.036493
681.000000	0.036370
680.000000	0.036302
679.000000	0.036252
678.000000	0.036143
677.000000	0.036011
676.000000	0.035939
675.000000	0.035851
674.000000	0.035807
673.000000	0.035705
672.000000	0.035666
671.000000	0.035751
670.000000	0.035734
669.000000	0.035808
668.000000	0.035950
667.000000	0.035943
666.000000	0.035917
665.000000	0.036026
664.000000	0.036091
663.000000	0.036112
662.000000	0.036246
661.000000	0.036392
660.000000	0.036546
659.000000	0.036592
658.000000	0.036645
657.000000	0.036770
656.000000	0.036861
655.000000	0.036950
654.000000	0.037116
653.000000	0.037309
652.000000	0.037348
651.000000	0.037461
650.000000	0.037574
649.000000	0.037662
648.000000	0.037689
647.000000	0.037768
646.000000	0.037723
645.000000	0.037656
644.000000	0.037652
643.000000	0.037719
642.000000	0.037734
641.000000	0.037676
640.000000	0.037677
639.000000	0.037727
638.000000	0.037716
637.000000	0.037692
636.000000	0.037716
635.000000	0.037795
634.000000	0.037696
633.000000	0.037647
632.000000	0.037829
631.000000	0.037848
630.000000	0.037853
629.000000	0.037936
628.000000	0.037938
627.000000	0.038025
626.000000	0.037974
625.000000	0.038186
624.000000	0.038229
623.000000	0.038262
622.000000	0.038227
621.000000	0.038435
620.000000	0.038490
619.000000	0.038455
618.000000	0.038537
617.000000	0.038637
616.000000	0.038600
615.000000	0.038665
614.000000	0.038842
613.000000	0.038954
612.000000	0.038846
611.000000	0.038861
610.000000	0.038962
609.000000	0.039033
608.000000	0.039127
607.000000	0.039194
606.000000	0.039274
605.000000	0.039254
604.000000	0.039103
603.000000	0.039433
602.000000	0.039492
601.000000	0.039353
600.000000	0.039426
599.000000	0.039401
598.000000	0.039347
597.000000	0.039508
596.000000	0.039469
595.000000	0.039566
594.000000	0.039444
593.000000	0.039581
592.000000	0.039715
591.000000	0.039843
590.000000	0.039917
589.000000	0.039880
588.000000	0.040081
587.000000	0.040138
586.000000	0.040060
585.000000	0.040386
584.000000	0.040479
583.000000	0.040433
582.000000	0.040568
581.000000	0.040743
580.000000	0.040678
579.000000	0.041017
578.000000	0.041128
577.000000	0.041058
576.000000	0.041162
575.000000	0.041195
574.000000	0.041331
573.000000	0.041626
572.000000	0.041663
571.000000	0.041594
570.000000	0.041713
569.000000	0.041683
568.000000	0.041635
567.000000	0.041992
566.000000	0.042110
565.000000	0.041877
564.000000	0.041905
563.000000	0.041969
562.000000	0.041888
561.000000	0.041953
560.000000	0.041942
559.000000	0.041952
558.000000	0.041927
557.000000	0.042079
556.000000	0.042103
555.000000	0.042083
554.000000	0.042027
553.000000	0.042131
552.000000	0.042222
551.000000	0.042259
550.000000	0.042310
549.000000	0.042396
548.000000	0.042405
547.000000	0.042370
546.000000	0.042450
545.000000	0.042509
544.000000	0.042471
543.000000	0.042456
542.000000	0.042603
541.000000	0.042729
540.000000	0.042677
539.000000	0.042790
538.000000	0.042863
537.000000	0.042874
536.000000	0.042974
535.000000	0.043194
534.000000	0.043327
533.000000	0.043285
532.000000	0.043337
531.000000	0.043491
530.000000	0.043554
529.000000	0.043651
528.000000	0.043866
527.000000	0.043987
526.000000	0.044086
525.000000	0.044117
524.000000	0.044246
523.000000	0.044459
522.000000	0.044530
521.000000	0.044678
520.000000	0.044855
519.000000	0.044944
518.000000	0.044959
517.000000	0.045139
516.000000	0.045312
515.000000	0.045439
514.000000	0.045548
513.000000	0.045659
512.000000	0.045773
511.000000	0.045888
510.000000	0.046037
509.000000	0.046221
508.000000	0.046303
507.000000	0.046409
506.000000	0.046618
505.000000	0.046814
504.000000	0.046927
503.000000	0.047085
502.000000	0.047345
501.000000	0.047537
500.000000	0.047675
499.000000	0.047899
498.000000	0.048174
497.000000	0.048312
496.000000	0.048503
495.000000	0.048874
494.000000	0.049189
493.000000	0.049291
492.000000	0.049517
491.000000	0.049794
490.000000	0.049982
489.000000	0.050253
488.000000	0.050530
487.000000	0.050754
486.000000	0.050930
485.000000	0.051144
484.000000	0.051420
483.000000	0.051686
482.000000	0.051923
481.000000	0.052121
480.000000	0.052305
479.000000	0.052560
478.000000	0.052820
477.000000	0.053165
476.000000	0.053402
475.000000	0.053503
474.000000	0.053735
473.000000	0.054089
472.000000	0.054300
471.000000	0.054544
470.000000	0.054824
469.000000	0.055100
468.000000	0.055303
467.000000	0.055580
466.000000	0.055915
465.000000	0.056161
464.000000	0.056401
463.000000	0.056661
462.000000	0.056959
461.000000	0.057154
460.000000	0.057450
459.000000	0.057759
458.000000	0.058002
457.000000	0.058310
456.000000	0.058699
455.000000	0.059056
454.000000	0.059297
453.000000	0.059560
452.000000	0.060033
451.000000	0.060426
450.000000	0.060705
449.000000	0.060971
448.000000	0.061403
447.000000	0.061752
446.000000	0.062065
445.000000	0.062482
444.000000	0.062920
443.000000	0.063254
442.000000	0.063669
441.000000	0.064124
440.000000	0.064506
439.000000	0.064970
438.000000	0.065385
437.000000	0.065908
436.000000	0.066350
435.000000	0.066705
434.000000	0.067231
433.000000	0.067824
432.000000	0.068242
431.000000	0.068812
430.000000	0.069465
429.000000	0.069894
428.000000	0.070412
427.000000	0.071098
426.000000	0.071772
425.000000	0.072322
424.000000	0.072864
423.000000	0.073501
422.000000	0.074207
421.000000	0.074851
420.000000	0.075584
419.000000	0.076272
418.000000	0.076994
417.000000	0.077598
416.000000	0.078318
415.000000	0.079241
414.000000	0.079910
413.000000	0.080621
412.000000	0.081576
411.000000	0.082370
410.000000	0.083107
409.000000	0.084024
408.000000	0.084943
407.000000	0.085851
406.000000	0.086758
405.000000	0.087622
404.000000	0.088654
403.000000	0.089546
402.000000	0.090532
401.000000	0.091675
400.000000	0.092775
399.000000	0.093718
398.000000	0.094889
397.000000	0.096031
396.000000	0.097065
395.000000	0.098161
394.000000	0.099455
393.000000	0.100706
392.000000	0.101855
391.000000	0.103209
390.000000	0.104508
389.000000	0.105876
388.000000	0.107212
387.000000	0.108444
386.000000	0.110079
385.000000	0.111465
384.000000	0.112850
383.000000	0.114362
382.000000	0.115989
381.000000	0.117393
380.000000	0.119030
379.000000	0.120781
378.000000	0.122487
377.000000	0.124057
376.000000	0.125751
375.000000	0.127440
374.000000	0.129216
373.000000	0.131172
372.000000	0.132950
371.000000	0.134604
370.000000	0.136387
369.000000	0.138337
368.000000	0.140352
367.000000	0.142107
366.000000	0.144126
365.000000	0.146115
364.000000	0.148225
363.000000	0.150125
362.000000	0.152224
361.000000	0.154450
360.000000	0.156446
359.000000	0.158640
358.000000	0.160900
357.000000	0.163070
356.000000	0.165266
355.000000	0.167552
354.000000	0.169945
353.000000	0.172122
352.000000	0.174450
351.000000	0.176978
350.000000	0.179457
349.000000	0.181708
348.000000	0.184166
347.000000	0.186743
346.000000	0.189404
345.000000	0.191901
344.000000	0.194460
343.000000	0.197152
342.000000	0.199717
341.000000	0.202319
340.000000	0.205147
339.000000	0.207940
338.000000	0.210722
337.000000	0.213572
336.000000	0.216519
335.000000	0.219341
334.000000	0.222217
333.000000	0.225269
332.000000	0.228340
331.000000	0.231441
330.000000	0.234675
329.000000	0.237851
328.000000	0.241034
327.000000	0.244262
326.000000	0.247574
325.000000	0.250952
324.000000	0.254217
323.000000	0.257534
322.000000	0.261170
321.000000	0.264703
320.000000	0.268183
319.000000	0.271748
318.000000	0.275965
317.000000	0.280524
316.000000	0.284177
315.000000	0.287887
314.000000	0.291607
313.000000	0.295435
312.000000	0.299387
311.000000	0.303201
310.000000	0.307137
309.000000	0.311114
308.000000	0.314978
307.000000	0.318964
306.000000	0.323107
305.000000	0.327257
304.000000	0.331264
303.000000	0.335429
302.000000	0.339758
301.000000	0.344151
300.000000	0.348412
299.000000	0.352853
298.000000	0.357406
297.000000	0.361718
296.000000	0.366266
295.000000	0.371035
294.000000	0.375882
293.000000	0.380806
292.000000	0.385678
291.000000	0.390957
290.000000	0.396299
289.000000	0.401498
288.000000	0.406835
287.000000	0.412287
286.000000	0.417790
285.000000	0.423498
284.000000	0.429183
283.000000	0.435031
282.000000	0.440861
281.000000	0.446627
280.000000	0.452622
279.000000	0.458628
278.000000	0.464671
277.000000	0.470860
276.000000	0.477154
275.000000	0.483272
274.000000	0.489542
273.000000	0.496016
272.000000	0.502467
271.000000	0.508784
270.000000	0.515140
269.000000	0.521492
268.000000	0.527755
267.000000	0.534005
266.000000	0.540181
265.000000	0.546181
264.000000	0.551938
263.000000	0.557626
262.000000	0.563421
261.000000	0.568928
260.000000	0.574151
259.000000	0.579379
258.000000	0.584541
257.000000	0.589582
256.000000	0.594497
255.000000	0.599478
254.000000	0.604526
253.000000	0.609549
252.000000	0.614571
251.000000	0.619844
250.000000	0.625234
249.000000	0.630820
248.000000	0.636667
247.000000	0.642893
246.000000	0.649652
245.000000	0.656832
244.000000	0.664735
243.000000	0.673315
242.000000	0.682380
241.000000	0.692355
240.000000	0.703251
239.000000	0.714725
238.000000	0.727465
237.000000	0.741345
236.000000	0.756712
235.000000	0.773689
234.000000	0.792442
233.000000	0.813173
232.000000	0.835924
231.000000	0.861040
230.000000	0.888755
229.000000	0.919161
228.000000	0.952264
227.000000	0.988983
226.000000	1.029555
225.000000	1.073974
224.000000	1.122129
223.000000	1.174281
222.000000	1.230296
221.000000	1.289591
220.000000	1.352188
219.000000	1.418104
218.000000	1.486386
217.000000	1.556574
216.000000	1.628368
215.000000	1.701141
214.000000	1.772994
213.000000	1.844553
212.000000	1.913837
211.000000	1.980034
210.000000	2.042797
209.000000	2.100623
208.000000	2.152860
207.000000	2.202058
206.000000	2.245799
205.000000	2.285615
204.000000	2.320336
203.000000	2.348369
202.000000	2.372548
201.000000	2.392007
200.000000	2.409594
