PE UV       SUBTECH     SPECTRUM    ASCII       PEDS        4.00        
   -1
KY4-02B.Sample.Raw.asc
11/05/10
12:56:45.00
11/05/10
12:56:45.00
Hermanni Kaartokallio

200.000000
1
Lambda 650
650N8121101
PerkinElmer UV WinLab 6.0.2.0723 / 1.61.00 Lambda 650

0
0
2
0
0
UV/VIS
1
1
1
uv/vis/nir detector
0
0
0
0
Fix
 
0
0.24
0
0
0
 
 
 
0
 
0
319.2
0
Front
100
 
 
 
0
0
0
 
0
 
 
 
0
 
 
0
0
0
0
0
 
 
 
 
0
0
#HDR
-1
-1
#GR
nm
A
1.0
0.0
800.000000
-1.000000
601
8
2.439483
0.035319
#DATA
800.000000	0.043034
799.000000	0.043107
798.000000	0.043155
797.000000	0.043164
796.000000	0.043389
795.000000	0.043656
794.000000	0.044090
793.000000	0.044335
792.000000	0.044453
791.000000	0.044887
790.000000	0.045207
789.000000	0.045421
788.000000	0.045835
787.000000	0.046089
786.000000	0.046169
785.000000	0.046380
784.000000	0.046704
783.000000	0.046746
782.000000	0.046955
781.000000	0.046826
780.000000	0.046916
779.000000	0.046922
778.000000	0.046877
777.000000	0.046884
776.000000	0.046841
775.000000	0.046778
774.000000	0.046647
773.000000	0.046584
772.000000	0.046577
771.000000	0.046406
770.000000	0.046323
769.000000	0.046342
768.000000	0.046274
767.000000	0.046161
766.000000	0.046263
765.000000	0.046312
764.000000	0.046343
763.000000	0.046275
762.000000	0.046337
761.000000	0.046355
760.000000	0.046408
759.000000	0.046382
758.000000	0.046433
757.000000	0.046395
756.000000	0.046235
755.000000	0.046148
754.000000	0.046148
753.000000	0.045981
752.000000	0.045868
751.000000	0.045831
750.000000	0.045626
749.000000	0.045313
748.000000	0.045358
747.000000	0.045308
746.000000	0.045254
745.000000	0.045174
744.000000	0.045144
743.000000	0.045000
742.000000	0.045008
741.000000	0.044979
740.000000	0.044824
739.000000	0.044649
738.000000	0.044470
737.000000	0.044285
736.000000	0.044042
735.000000	0.043744
734.000000	0.043434
733.000000	0.043067
732.000000	0.042651
731.000000	0.042285
730.000000	0.042026
729.000000	0.041782
728.000000	0.041498
727.000000	0.041219
726.000000	0.040977
725.000000	0.040872
724.000000	0.040723
723.000000	0.040580
722.000000	0.040359
721.000000	0.040198
720.000000	0.040043
719.000000	0.039960
718.000000	0.039813
717.000000	0.039551
716.000000	0.039289
715.000000	0.039076
714.000000	0.038806
713.000000	0.038610
712.000000	0.038435
711.000000	0.038122
710.000000	0.037886
709.000000	0.037674
708.000000	0.037499
707.000000	0.037435
706.000000	0.037298
705.000000	0.037190
704.000000	0.037123
703.000000	0.037079
702.000000	0.037016
701.000000	0.037008
700.000000	0.037024
699.000000	0.036966
698.000000	0.036927
697.000000	0.036950
696.000000	0.036984
695.000000	0.036991
694.000000	0.036941
693.000000	0.036912
692.000000	0.036844
691.000000	0.036736
690.000000	0.036718
689.000000	0.036659
688.000000	0.036539
687.000000	0.036486
686.000000	0.036433
685.000000	0.036337
684.000000	0.036271
683.000000	0.036183
682.000000	0.035983
681.000000	0.035951
680.000000	0.035934
679.000000	0.035822
678.000000	0.035675
677.000000	0.035596
676.000000	0.035521
675.000000	0.035390
674.000000	0.035359
673.000000	0.035339
672.000000	0.035319
671.000000	0.035325
670.000000	0.035321
669.000000	0.035414
668.000000	0.035455
667.000000	0.035517
666.000000	0.035557
665.000000	0.035635
664.000000	0.035697
663.000000	0.035793
662.000000	0.035954
661.000000	0.036098
660.000000	0.036290
659.000000	0.036425
658.000000	0.036564
657.000000	0.036690
656.000000	0.036811
655.000000	0.036924
654.000000	0.037056
653.000000	0.037211
652.000000	0.037262
651.000000	0.037459
650.000000	0.037539
649.000000	0.037642
648.000000	0.037702
647.000000	0.037788
646.000000	0.037728
645.000000	0.037728
644.000000	0.037785
643.000000	0.037828
642.000000	0.037834
641.000000	0.037749
640.000000	0.037699
639.000000	0.037703
638.000000	0.037720
637.000000	0.037667
636.000000	0.037691
635.000000	0.037723
634.000000	0.037637
633.000000	0.037619
632.000000	0.037693
631.000000	0.037670
630.000000	0.037765
629.000000	0.037883
628.000000	0.037845
627.000000	0.037878
626.000000	0.037872
625.000000	0.037986
624.000000	0.038006
623.000000	0.038149
622.000000	0.038177
621.000000	0.038258
620.000000	0.038314
619.000000	0.038322
618.000000	0.038355
617.000000	0.038413
616.000000	0.038357
615.000000	0.038458
614.000000	0.038588
613.000000	0.038658
612.000000	0.038638
611.000000	0.038665
610.000000	0.038735
609.000000	0.038801
608.000000	0.038912
607.000000	0.038969
606.000000	0.039032
605.000000	0.038997
604.000000	0.038885
603.000000	0.039208
602.000000	0.039180
601.000000	0.039101
600.000000	0.039192
599.000000	0.039156
598.000000	0.039019
597.000000	0.039295
596.000000	0.039304
595.000000	0.039395
594.000000	0.039270
593.000000	0.039428
592.000000	0.039541
591.000000	0.039585
590.000000	0.039768
589.000000	0.039736
588.000000	0.039888
587.000000	0.039944
586.000000	0.039975
585.000000	0.040201
584.000000	0.040286
583.000000	0.040246
582.000000	0.040467
581.000000	0.040571
580.000000	0.040508
579.000000	0.040782
578.000000	0.040964
577.000000	0.040894
576.000000	0.040995
575.000000	0.041122
574.000000	0.041155
573.000000	0.041304
572.000000	0.041436
571.000000	0.041516
570.000000	0.041616
569.000000	0.041547
568.000000	0.041532
567.000000	0.041736
566.000000	0.041876
565.000000	0.041765
564.000000	0.041822
563.000000	0.041881
562.000000	0.041833
561.000000	0.041947
560.000000	0.041979
559.000000	0.041924
558.000000	0.041976
557.000000	0.042040
556.000000	0.042015
555.000000	0.042063
554.000000	0.042076
553.000000	0.042075
552.000000	0.042022
551.000000	0.042054
550.000000	0.042110
549.000000	0.042149
548.000000	0.042116
547.000000	0.042160
546.000000	0.042215
545.000000	0.042231
544.000000	0.042243
543.000000	0.042236
542.000000	0.042341
541.000000	0.042413
540.000000	0.042443
539.000000	0.042547
538.000000	0.042591
537.000000	0.042643
536.000000	0.042711
535.000000	0.042864
534.000000	0.042954
533.000000	0.043024
532.000000	0.043150
531.000000	0.043223
530.000000	0.043205
529.000000	0.043315
528.000000	0.043543
527.000000	0.043637
526.000000	0.043764
525.000000	0.043886
524.000000	0.043935
523.000000	0.044067
522.000000	0.044202
521.000000	0.044388
520.000000	0.044505
519.000000	0.044591
518.000000	0.044702
517.000000	0.044885
516.000000	0.044973
515.000000	0.045094
514.000000	0.045288
513.000000	0.045405
512.000000	0.045458
511.000000	0.045613
510.000000	0.045727
509.000000	0.045871
508.000000	0.046010
507.000000	0.046112
506.000000	0.046249
505.000000	0.046473
504.000000	0.046654
503.000000	0.046847
502.000000	0.047045
501.000000	0.047140
500.000000	0.047264
499.000000	0.047489
498.000000	0.047677
497.000000	0.047867
496.000000	0.048157
495.000000	0.048390
494.000000	0.048567
493.000000	0.048757
492.000000	0.049051
491.000000	0.049327
490.000000	0.049548
489.000000	0.049797
488.000000	0.050035
487.000000	0.050282
486.000000	0.050488
485.000000	0.050718
484.000000	0.050980
483.000000	0.051162
482.000000	0.051385
481.000000	0.051679
480.000000	0.051863
479.000000	0.052023
478.000000	0.052272
477.000000	0.052567
476.000000	0.052770
475.000000	0.052995
474.000000	0.053309
473.000000	0.053551
472.000000	0.053693
471.000000	0.053979
470.000000	0.054329
469.000000	0.054597
468.000000	0.054827
467.000000	0.055149
466.000000	0.055437
465.000000	0.055603
464.000000	0.055848
463.000000	0.056187
462.000000	0.056439
461.000000	0.056685
460.000000	0.057076
459.000000	0.057310
458.000000	0.057551
457.000000	0.057906
456.000000	0.058261
455.000000	0.058563
454.000000	0.058718
453.000000	0.059020
452.000000	0.059362
451.000000	0.059648
450.000000	0.059917
449.000000	0.060237
448.000000	0.060596
447.000000	0.060870
446.000000	0.061174
445.000000	0.061630
444.000000	0.061993
443.000000	0.062312
442.000000	0.062704
441.000000	0.063087
440.000000	0.063480
439.000000	0.063867
438.000000	0.064351
437.000000	0.064786
436.000000	0.065177
435.000000	0.065550
434.000000	0.066069
433.000000	0.066512
432.000000	0.066898
431.000000	0.067446
430.000000	0.068015
429.000000	0.068442
428.000000	0.068970
427.000000	0.069645
426.000000	0.070153
425.000000	0.070599
424.000000	0.071133
423.000000	0.071729
422.000000	0.072264
421.000000	0.072904
420.000000	0.073651
419.000000	0.074287
418.000000	0.074863
417.000000	0.075505
416.000000	0.076262
415.000000	0.076956
414.000000	0.077562
413.000000	0.078286
412.000000	0.079183
411.000000	0.079876
410.000000	0.080538
409.000000	0.081564
408.000000	0.082325
407.000000	0.083056
406.000000	0.083937
405.000000	0.084733
404.000000	0.085675
403.000000	0.086514
402.000000	0.087582
401.000000	0.088463
400.000000	0.089403
399.000000	0.090296
398.000000	0.091410
397.000000	0.092437
396.000000	0.093283
395.000000	0.094460
394.000000	0.095710
393.000000	0.096599
392.000000	0.097754
391.000000	0.099043
390.000000	0.100178
389.000000	0.101389
388.000000	0.102709
387.000000	0.103927
386.000000	0.105404
385.000000	0.106632
384.000000	0.108184
383.000000	0.109561
382.000000	0.110928
381.000000	0.112284
380.000000	0.113930
379.000000	0.115410
378.000000	0.116860
377.000000	0.118573
376.000000	0.120108
375.000000	0.121579
374.000000	0.123259
373.000000	0.124977
372.000000	0.126650
371.000000	0.128048
370.000000	0.129917
369.000000	0.131677
368.000000	0.133479
367.000000	0.135199
366.000000	0.137135
365.000000	0.138954
364.000000	0.140835
363.000000	0.142725
362.000000	0.144748
361.000000	0.146696
360.000000	0.148510
359.000000	0.150631
358.000000	0.152717
357.000000	0.154697
356.000000	0.156786
355.000000	0.158974
354.000000	0.161021
353.000000	0.163095
352.000000	0.165422
351.000000	0.167720
350.000000	0.169984
349.000000	0.172046
348.000000	0.174418
347.000000	0.176745
346.000000	0.179122
345.000000	0.181452
344.000000	0.183941
343.000000	0.186409
342.000000	0.188792
341.000000	0.191266
340.000000	0.193821
339.000000	0.196306
338.000000	0.198929
337.000000	0.201575
336.000000	0.204272
335.000000	0.206854
334.000000	0.209553
333.000000	0.212414
332.000000	0.215123
331.000000	0.217965
330.000000	0.220943
329.000000	0.223889
328.000000	0.226869
327.000000	0.229898
326.000000	0.232852
325.000000	0.235907
324.000000	0.238836
323.000000	0.241959
322.000000	0.245293
321.000000	0.248495
320.000000	0.251699
319.000000	0.255010
318.000000	0.259013
317.000000	0.263603
316.000000	0.266954
315.000000	0.270375
314.000000	0.273879
313.000000	0.277551
312.000000	0.281201
311.000000	0.284728
310.000000	0.288504
309.000000	0.292380
308.000000	0.296015
307.000000	0.299813
306.000000	0.303721
305.000000	0.307736
304.000000	0.311656
303.000000	0.315572
302.000000	0.319787
301.000000	0.323885
300.000000	0.328016
299.000000	0.332344
298.000000	0.336886
297.000000	0.341109
296.000000	0.345565
295.000000	0.350206
294.000000	0.354766
293.000000	0.359312
292.000000	0.363921
291.000000	0.368754
290.000000	0.373705
289.000000	0.378583
288.000000	0.383690
287.000000	0.388869
286.000000	0.394001
285.000000	0.399222
284.000000	0.404538
283.000000	0.409899
282.000000	0.415371
281.000000	0.420848
280.000000	0.426133
279.000000	0.431395
278.000000	0.436817
277.000000	0.442415
276.000000	0.448090
275.000000	0.453597
274.000000	0.459187
273.000000	0.464941
272.000000	0.470520
271.000000	0.476033
270.000000	0.481778
269.000000	0.487517
268.000000	0.493001
267.000000	0.498556
266.000000	0.504118
265.000000	0.509483
264.000000	0.514715
263.000000	0.519973
262.000000	0.525179
261.000000	0.530110
260.000000	0.534901
259.000000	0.539723
258.000000	0.544480
257.000000	0.549093
256.000000	0.553707
255.000000	0.558469
254.000000	0.563150
253.000000	0.567794
252.000000	0.572647
251.000000	0.577546
250.000000	0.582520
249.000000	0.587848
248.000000	0.593548
247.000000	0.599501
246.000000	0.605801
245.000000	0.612756
244.000000	0.620345
243.000000	0.628358
242.000000	0.636981
241.000000	0.646333
240.000000	0.656539
239.000000	0.667551
238.000000	0.679776
237.000000	0.693195
236.000000	0.708030
235.000000	0.724355
234.000000	0.742551
233.000000	0.762802
232.000000	0.785239
231.000000	0.810237
230.000000	0.837808
229.000000	0.868224
228.000000	0.901744
227.000000	0.938933
226.000000	0.979411
225.000000	1.024612
224.000000	1.073618
223.000000	1.127128
222.000000	1.184392
221.000000	1.244945
220.000000	1.309063
219.000000	1.376515
218.000000	1.446627
217.000000	1.518922
216.000000	1.592596
215.000000	1.667319
214.000000	1.741539
213.000000	1.815583
212.000000	1.887815
211.000000	1.956133
210.000000	2.020936
209.000000	2.080953
208.000000	2.137714
207.000000	2.191400
206.000000	2.235604
205.000000	2.277638
204.000000	2.315913
203.000000	2.347764
202.000000	2.378003
201.000000	2.409999
200.000000	2.439483
