PE UV       SUBTECH     SPECTRUM    ASCII       PEDS        4.00        
   -1
KY4-02A.Sample.Raw.asc
11/05/10
12:51:51.00
11/05/10
12:51:51.00
Hermanni Kaartokallio

200.000000
1
Lambda 650
650N8121101
PerkinElmer UV WinLab 6.0.2.0723 / 1.61.00 Lambda 650

0
0
2
0
0
UV/VIS
1
1
1
uv/vis/nir detector
0
0
0
0
Fix
 
0
0.24
0
0
0
 
 
 
0
 
0
319.2
0
Front
100
 
 
 
0
0
0
 
0
 
 
 
0
 
 
0
0
0
0
0
 
 
 
 
0
0
#HDR
-1
-1
#GR
nm
A
1.0
0.0
800.000000
-1.000000
601
8
2.442825
0.035174
#DATA
800.000000	0.042534
799.000000	0.042486
798.000000	0.042522
797.000000	0.042704
796.000000	0.042775
795.000000	0.043005
794.000000	0.043448
793.000000	0.043673
792.000000	0.043669
791.000000	0.044014
790.000000	0.044425
789.000000	0.044653
788.000000	0.044856
787.000000	0.045138
786.000000	0.045371
785.000000	0.045467
784.000000	0.045624
783.000000	0.045855
782.000000	0.046133
781.000000	0.045943
780.000000	0.046069
779.000000	0.046139
778.000000	0.046232
777.000000	0.046197
776.000000	0.046233
775.000000	0.046314
774.000000	0.046217
773.000000	0.046019
772.000000	0.046180
771.000000	0.046117
770.000000	0.045971
769.000000	0.046031
768.000000	0.045963
767.000000	0.045861
766.000000	0.045843
765.000000	0.045960
764.000000	0.046078
763.000000	0.045910
762.000000	0.045986
761.000000	0.046038
760.000000	0.046057
759.000000	0.045946
758.000000	0.046040
757.000000	0.046096
756.000000	0.045867
755.000000	0.045736
754.000000	0.045786
753.000000	0.045680
752.000000	0.045481
751.000000	0.045448
750.000000	0.045447
749.000000	0.045322
748.000000	0.045266
747.000000	0.045308
746.000000	0.045214
745.000000	0.045086
744.000000	0.044956
743.000000	0.044967
742.000000	0.044955
741.000000	0.044772
740.000000	0.044681
739.000000	0.044596
738.000000	0.044286
737.000000	0.044061
736.000000	0.043899
735.000000	0.043651
734.000000	0.043255
733.000000	0.042834
732.000000	0.042520
731.000000	0.042106
730.000000	0.041761
729.000000	0.041584
728.000000	0.041321
727.000000	0.040884
726.000000	0.040685
725.000000	0.040614
724.000000	0.040491
723.000000	0.040266
722.000000	0.040054
721.000000	0.039991
720.000000	0.039765
719.000000	0.039574
718.000000	0.039456
717.000000	0.039192
716.000000	0.038852
715.000000	0.038609
714.000000	0.038438
713.000000	0.038212
712.000000	0.037912
711.000000	0.037723
710.000000	0.037553
709.000000	0.037319
708.000000	0.037113
707.000000	0.037090
706.000000	0.036980
705.000000	0.036825
704.000000	0.036789
703.000000	0.036782
702.000000	0.036696
701.000000	0.036675
700.000000	0.036728
699.000000	0.036725
698.000000	0.036684
697.000000	0.036721
696.000000	0.036817
695.000000	0.036782
694.000000	0.036728
693.000000	0.036779
692.000000	0.036750
691.000000	0.036642
690.000000	0.036582
689.000000	0.036605
688.000000	0.036524
687.000000	0.036441
686.000000	0.036446
685.000000	0.036286
684.000000	0.036123
683.000000	0.036058
682.000000	0.035937
681.000000	0.035841
680.000000	0.035778
679.000000	0.035739
678.000000	0.035656
677.000000	0.035533
676.000000	0.035428
675.000000	0.035353
674.000000	0.035300
673.000000	0.035216
672.000000	0.035174
671.000000	0.035217
670.000000	0.035190
669.000000	0.035220
668.000000	0.035351
667.000000	0.035421
666.000000	0.035447
665.000000	0.035509
664.000000	0.035579
663.000000	0.035692
662.000000	0.035830
661.000000	0.036010
660.000000	0.036155
659.000000	0.036223
658.000000	0.036274
657.000000	0.036433
656.000000	0.036598
655.000000	0.036686
654.000000	0.036831
653.000000	0.037021
652.000000	0.037045
651.000000	0.037160
650.000000	0.037309
649.000000	0.037411
648.000000	0.037404
647.000000	0.037493
646.000000	0.037502
645.000000	0.037467
644.000000	0.037397
643.000000	0.037473
642.000000	0.037477
641.000000	0.037421
640.000000	0.037318
639.000000	0.037331
638.000000	0.037390
637.000000	0.037325
636.000000	0.037335
635.000000	0.037442
634.000000	0.037326
633.000000	0.037257
632.000000	0.037441
631.000000	0.037447
630.000000	0.037480
629.000000	0.037565
628.000000	0.037560
627.000000	0.037652
626.000000	0.037674
625.000000	0.037803
624.000000	0.037863
623.000000	0.037952
622.000000	0.037934
621.000000	0.038108
620.000000	0.038169
619.000000	0.038144
618.000000	0.038163
617.000000	0.038384
616.000000	0.038320
615.000000	0.038350
614.000000	0.038519
613.000000	0.038593
612.000000	0.038468
611.000000	0.038526
610.000000	0.038661
609.000000	0.038786
608.000000	0.038895
607.000000	0.038965
606.000000	0.039025
605.000000	0.039025
604.000000	0.038806
603.000000	0.039125
602.000000	0.039196
601.000000	0.039130
600.000000	0.039114
599.000000	0.039188
598.000000	0.039009
597.000000	0.039241
596.000000	0.039243
595.000000	0.039358
594.000000	0.039272
593.000000	0.039337
592.000000	0.039471
591.000000	0.039560
590.000000	0.039676
589.000000	0.039619
588.000000	0.039836
587.000000	0.039871
586.000000	0.039789
585.000000	0.040032
584.000000	0.040219
583.000000	0.040196
582.000000	0.040315
581.000000	0.040433
580.000000	0.040455
579.000000	0.040642
578.000000	0.040857
577.000000	0.040928
576.000000	0.040947
575.000000	0.040980
574.000000	0.041069
573.000000	0.041254
572.000000	0.041305
571.000000	0.041344
570.000000	0.041519
569.000000	0.041490
568.000000	0.041439
567.000000	0.041573
566.000000	0.041738
565.000000	0.041623
564.000000	0.041623
563.000000	0.041669
562.000000	0.041638
561.000000	0.041717
560.000000	0.041717
559.000000	0.041791
558.000000	0.041766
557.000000	0.041752
556.000000	0.041767
555.000000	0.041755
554.000000	0.041695
553.000000	0.041720
552.000000	0.041721
551.000000	0.041661
550.000000	0.041709
549.000000	0.041730
548.000000	0.041803
547.000000	0.041807
546.000000	0.041918
545.000000	0.041999
544.000000	0.041962
543.000000	0.041952
542.000000	0.042120
541.000000	0.042195
540.000000	0.042205
539.000000	0.042276
538.000000	0.042356
537.000000	0.042390
536.000000	0.042459
535.000000	0.042614
534.000000	0.042787
533.000000	0.042836
532.000000	0.042890
531.000000	0.043049
530.000000	0.043125
529.000000	0.043204
528.000000	0.043419
527.000000	0.043593
526.000000	0.043678
525.000000	0.043725
524.000000	0.043783
523.000000	0.043958
522.000000	0.044093
521.000000	0.044224
520.000000	0.044379
519.000000	0.044493
518.000000	0.044539
517.000000	0.044701
516.000000	0.044838
515.000000	0.044956
514.000000	0.045084
513.000000	0.045188
512.000000	0.045273
511.000000	0.045433
510.000000	0.045576
509.000000	0.045742
508.000000	0.045842
507.000000	0.045895
506.000000	0.046059
505.000000	0.046297
504.000000	0.046476
503.000000	0.046624
502.000000	0.046822
501.000000	0.046983
500.000000	0.047118
499.000000	0.047310
498.000000	0.047577
497.000000	0.047721
496.000000	0.047936
495.000000	0.048242
494.000000	0.048463
493.000000	0.048659
492.000000	0.048955
491.000000	0.049263
490.000000	0.049453
489.000000	0.049631
488.000000	0.049869
487.000000	0.050204
486.000000	0.050434
485.000000	0.050609
484.000000	0.050876
483.000000	0.051069
482.000000	0.051287
481.000000	0.051561
480.000000	0.051743
479.000000	0.051918
478.000000	0.052112
477.000000	0.052363
476.000000	0.052597
475.000000	0.052768
474.000000	0.053028
473.000000	0.053346
472.000000	0.053489
471.000000	0.053678
470.000000	0.053981
469.000000	0.054273
468.000000	0.054483
467.000000	0.054687
466.000000	0.055009
465.000000	0.055224
464.000000	0.055426
463.000000	0.055744
462.000000	0.055994
461.000000	0.056186
460.000000	0.056467
459.000000	0.056729
458.000000	0.057021
457.000000	0.057260
456.000000	0.057545
455.000000	0.057872
454.000000	0.058059
453.000000	0.058262
452.000000	0.058571
451.000000	0.058970
450.000000	0.059251
449.000000	0.059539
448.000000	0.059941
447.000000	0.060208
446.000000	0.060527
445.000000	0.060920
444.000000	0.061284
443.000000	0.061664
442.000000	0.062060
441.000000	0.062449
440.000000	0.062800
439.000000	0.063251
438.000000	0.063624
437.000000	0.064131
436.000000	0.064543
435.000000	0.064869
434.000000	0.065394
433.000000	0.065922
432.000000	0.066351
431.000000	0.066833
430.000000	0.067421
429.000000	0.067837
428.000000	0.068359
427.000000	0.068971
426.000000	0.069544
425.000000	0.070035
424.000000	0.070518
423.000000	0.071151
422.000000	0.071764
421.000000	0.072397
420.000000	0.073066
419.000000	0.073717
418.000000	0.074339
417.000000	0.074928
416.000000	0.075578
415.000000	0.076425
414.000000	0.077040
413.000000	0.077760
412.000000	0.078599
411.000000	0.079387
410.000000	0.080153
409.000000	0.080881
408.000000	0.081771
407.000000	0.082564
406.000000	0.083361
405.000000	0.084278
404.000000	0.085136
403.000000	0.086036
402.000000	0.087042
401.000000	0.088099
400.000000	0.089028
399.000000	0.089856
398.000000	0.090896
397.000000	0.092101
396.000000	0.092986
395.000000	0.094050
394.000000	0.095330
393.000000	0.096490
392.000000	0.097604
391.000000	0.098828
390.000000	0.100011
389.000000	0.101360
388.000000	0.102579
387.000000	0.103833
386.000000	0.105345
385.000000	0.106618
384.000000	0.108044
383.000000	0.109437
382.000000	0.110971
381.000000	0.112218
380.000000	0.113747
379.000000	0.115355
378.000000	0.116970
377.000000	0.118361
376.000000	0.120008
375.000000	0.121687
374.000000	0.123328
373.000000	0.125033
372.000000	0.126854
371.000000	0.128320
370.000000	0.130094
369.000000	0.131945
368.000000	0.133818
367.000000	0.135569
366.000000	0.137373
365.000000	0.139305
364.000000	0.141253
363.000000	0.143068
362.000000	0.145076
361.000000	0.147211
360.000000	0.149146
359.000000	0.151138
358.000000	0.153167
357.000000	0.155355
356.000000	0.157434
355.000000	0.159585
354.000000	0.161778
353.000000	0.163911
352.000000	0.166119
351.000000	0.168519
350.000000	0.170855
349.000000	0.173069
348.000000	0.175384
347.000000	0.177712
346.000000	0.180319
345.000000	0.182571
344.000000	0.184993
343.000000	0.187470
342.000000	0.189953
341.000000	0.192479
340.000000	0.195135
339.000000	0.197794
338.000000	0.200412
337.000000	0.202998
336.000000	0.205794
335.000000	0.208568
334.000000	0.211291
333.000000	0.214150
332.000000	0.217055
331.000000	0.219996
330.000000	0.222974
329.000000	0.226002
328.000000	0.229093
327.000000	0.232157
326.000000	0.235192
325.000000	0.238352
324.000000	0.241439
323.000000	0.244593
322.000000	0.247988
321.000000	0.251376
320.000000	0.254584
319.000000	0.257994
318.000000	0.262050
317.000000	0.266383
316.000000	0.269830
315.000000	0.273473
314.000000	0.277063
313.000000	0.280724
312.000000	0.284485
311.000000	0.288169
310.000000	0.291854
309.000000	0.295636
308.000000	0.299467
307.000000	0.303333
306.000000	0.307289
305.000000	0.311266
304.000000	0.315267
303.000000	0.319309
302.000000	0.323444
301.000000	0.327687
300.000000	0.331955
299.000000	0.336195
298.000000	0.340625
297.000000	0.345060
296.000000	0.349533
295.000000	0.354185
294.000000	0.358977
293.000000	0.363516
292.000000	0.368058
291.000000	0.373141
290.000000	0.378303
289.000000	0.383362
288.000000	0.388526
287.000000	0.393788
286.000000	0.399091
285.000000	0.404467
284.000000	0.409824
283.000000	0.415438
282.000000	0.421030
281.000000	0.426527
280.000000	0.432109
279.000000	0.437789
278.000000	0.443544
277.000000	0.449292
276.000000	0.455189
275.000000	0.461039
274.000000	0.466962
273.000000	0.473060
272.000000	0.479075
271.000000	0.485041
270.000000	0.491052
269.000000	0.497085
268.000000	0.502944
267.000000	0.508767
266.000000	0.514551
265.000000	0.520250
264.000000	0.525769
263.000000	0.531177
262.000000	0.536610
261.000000	0.541844
260.000000	0.546817
259.000000	0.551710
258.000000	0.556564
257.000000	0.561395
256.000000	0.566145
255.000000	0.570890
254.000000	0.575665
253.000000	0.580524
252.000000	0.585266
251.000000	0.590199
250.000000	0.595299
249.000000	0.600684
248.000000	0.606389
247.000000	0.612492
246.000000	0.619012
245.000000	0.625949
244.000000	0.633582
243.000000	0.641639
242.000000	0.650273
241.000000	0.659856
240.000000	0.670424
239.000000	0.681771
238.000000	0.694202
237.000000	0.708029
236.000000	0.723333
235.000000	0.740390
234.000000	0.759138
233.000000	0.780186
232.000000	0.803247
231.000000	0.828633
230.000000	0.856842
229.000000	0.887746
228.000000	0.921868
227.000000	0.959197
226.000000	1.000525
225.000000	1.046259
224.000000	1.095428
223.000000	1.148967
222.000000	1.206558
221.000000	1.267423
220.000000	1.331675
219.000000	1.399119
218.000000	1.469616
217.000000	1.542143
216.000000	1.615647
215.000000	1.689579
214.000000	1.764042
213.000000	1.838135
212.000000	1.909434
211.000000	1.978031
210.000000	2.043755
209.000000	2.102005
208.000000	2.158531
207.000000	2.209803
206.000000	2.256157
205.000000	2.295707
204.000000	2.332030
203.000000	2.364066
202.000000	2.392337
201.000000	2.417810
200.000000	2.442825
