PE UV       SUBTECH     SPECTRUM    ASCII       PEDS        4.00        
   -1
MQ11005.Sample.Raw.asc
11/05/10
12:32:59.00
11/05/10
12:32:59.00
Hermanni Kaartokallio

200.000000
1
Lambda 650
650N8121101
PerkinElmer UV WinLab 6.0.2.0723 / 1.61.00 Lambda 650

0
0
2
0
0
UV/VIS
1
1
1
uv/vis/nir detector
0
0
0
0
Fix
 
0
0.24
0
0
0
 
 
 
0
 
0
319.2
0
Front
100
 
 
 
0
0
0
 
0
 
 
 
0
 
 
0
0
0
0
0
 
 
 
 
0
0
#HDR
-1
-1
#GR
nm
A
1.0
0.0
800.000000
-1.000000
601
8
0.096284
0.031493
#DATA
800.000000	0.041108
799.000000	0.041109
798.000000	0.041275
797.000000	0.041136
796.000000	0.041377
795.000000	0.041689
794.000000	0.041929
793.000000	0.042124
792.000000	0.042173
791.000000	0.042487
790.000000	0.042784
789.000000	0.043074
788.000000	0.043254
787.000000	0.043456
786.000000	0.043701
785.000000	0.043810
784.000000	0.044053
783.000000	0.044126
782.000000	0.044291
781.000000	0.044283
780.000000	0.044359
779.000000	0.044300
778.000000	0.044371
777.000000	0.044506
776.000000	0.044409
775.000000	0.044349
774.000000	0.044238
773.000000	0.044270
772.000000	0.044395
771.000000	0.044285
770.000000	0.044374
769.000000	0.044492
768.000000	0.044432
767.000000	0.044387
766.000000	0.044523
765.000000	0.044440
764.000000	0.044553
763.000000	0.044554
762.000000	0.044564
761.000000	0.044606
760.000000	0.044636
759.000000	0.044571
758.000000	0.044558
757.000000	0.044528
756.000000	0.044367
755.000000	0.044277
754.000000	0.044232
753.000000	0.044036
752.000000	0.043950
751.000000	0.043896
750.000000	0.043784
749.000000	0.043630
748.000000	0.043657
747.000000	0.043642
746.000000	0.043482
745.000000	0.043405
744.000000	0.043421
743.000000	0.043309
742.000000	0.043190
741.000000	0.043107
740.000000	0.042973
739.000000	0.042801
738.000000	0.042536
737.000000	0.042356
736.000000	0.042053
735.000000	0.041684
734.000000	0.041313
733.000000	0.040917
732.000000	0.040477
731.000000	0.040066
730.000000	0.039746
729.000000	0.039398
728.000000	0.039049
727.000000	0.038616
726.000000	0.038411
725.000000	0.038239
724.000000	0.037995
723.000000	0.037835
722.000000	0.037619
721.000000	0.037356
720.000000	0.037140
719.000000	0.037011
718.000000	0.036836
717.000000	0.036564
716.000000	0.036299
715.000000	0.036088
714.000000	0.035815
713.000000	0.035638
712.000000	0.035464
711.000000	0.035238
710.000000	0.035033
709.000000	0.034879
708.000000	0.034752
707.000000	0.034651
706.000000	0.034536
705.000000	0.034448
704.000000	0.034425
703.000000	0.034347
702.000000	0.034262
701.000000	0.034288
700.000000	0.034288
699.000000	0.034171
698.000000	0.034066
697.000000	0.034056
696.000000	0.034043
695.000000	0.034001
694.000000	0.033991
693.000000	0.033959
692.000000	0.033817
691.000000	0.033647
690.000000	0.033559
689.000000	0.033401
688.000000	0.033227
687.000000	0.033184
686.000000	0.033143
685.000000	0.032970
684.000000	0.032803
683.000000	0.032695
682.000000	0.032540
681.000000	0.032405
680.000000	0.032351
679.000000	0.032247
678.000000	0.032094
677.000000	0.032000
676.000000	0.031869
675.000000	0.031679
674.000000	0.031597
673.000000	0.031553
672.000000	0.031505
671.000000	0.031512
670.000000	0.031500
669.000000	0.031521
668.000000	0.031526
667.000000	0.031493
666.000000	0.031550
665.000000	0.031539
664.000000	0.031513
663.000000	0.031566
662.000000	0.031672
661.000000	0.031742
660.000000	0.031753
659.000000	0.031785
658.000000	0.031811
657.000000	0.031847
656.000000	0.031964
655.000000	0.031992
654.000000	0.032047
653.000000	0.032132
652.000000	0.032166
651.000000	0.032256
650.000000	0.032254
649.000000	0.032310
648.000000	0.032338
647.000000	0.032375
646.000000	0.032314
645.000000	0.032230
644.000000	0.032271
643.000000	0.032307
642.000000	0.032328
641.000000	0.032166
640.000000	0.032203
639.000000	0.032215
638.000000	0.032236
637.000000	0.032226
636.000000	0.032268
635.000000	0.032322
634.000000	0.032259
633.000000	0.032218
632.000000	0.032273
631.000000	0.032303
630.000000	0.032406
629.000000	0.032527
628.000000	0.032404
627.000000	0.032437
626.000000	0.032533
625.000000	0.032622
624.000000	0.032608
623.000000	0.032681
622.000000	0.032725
621.000000	0.032785
620.000000	0.032841
619.000000	0.032898
618.000000	0.032945
617.000000	0.033016
616.000000	0.032921
615.000000	0.032999
614.000000	0.033101
613.000000	0.033100
612.000000	0.033001
611.000000	0.033098
610.000000	0.033126
609.000000	0.033127
608.000000	0.033210
607.000000	0.033280
606.000000	0.033290
605.000000	0.033181
604.000000	0.032979
603.000000	0.033227
602.000000	0.033172
601.000000	0.033155
600.000000	0.033140
599.000000	0.032984
598.000000	0.032837
597.000000	0.032994
596.000000	0.032924
595.000000	0.032925
594.000000	0.032803
593.000000	0.032953
592.000000	0.032940
591.000000	0.032959
590.000000	0.033048
589.000000	0.032931
588.000000	0.033024
587.000000	0.032996
586.000000	0.032845
585.000000	0.033055
584.000000	0.033082
583.000000	0.033043
582.000000	0.033103
581.000000	0.033180
580.000000	0.033087
579.000000	0.033261
578.000000	0.033354
577.000000	0.033269
576.000000	0.033281
575.000000	0.033307
574.000000	0.033276
573.000000	0.033344
572.000000	0.033428
571.000000	0.033393
570.000000	0.033382
569.000000	0.033233
568.000000	0.033150
567.000000	0.033304
566.000000	0.033380
565.000000	0.033237
564.000000	0.033185
563.000000	0.033116
562.000000	0.032965
561.000000	0.033032
560.000000	0.032916
559.000000	0.032866
558.000000	0.032865
557.000000	0.032820
556.000000	0.032745
555.000000	0.032712
554.000000	0.032660
553.000000	0.032570
552.000000	0.032500
551.000000	0.032508
550.000000	0.032485
549.000000	0.032409
548.000000	0.032412
547.000000	0.032374
546.000000	0.032391
545.000000	0.032305
544.000000	0.032266
543.000000	0.032268
542.000000	0.032279
541.000000	0.032305
540.000000	0.032331
539.000000	0.032325
538.000000	0.032294
537.000000	0.032267
536.000000	0.032271
535.000000	0.032333
534.000000	0.032350
533.000000	0.032381
532.000000	0.032416
531.000000	0.032422
530.000000	0.032420
529.000000	0.032509
528.000000	0.032625
527.000000	0.032651
526.000000	0.032668
525.000000	0.032655
524.000000	0.032581
523.000000	0.032678
522.000000	0.032733
521.000000	0.032755
520.000000	0.032741
519.000000	0.032740
518.000000	0.032746
517.000000	0.032747
516.000000	0.032677
515.000000	0.032745
514.000000	0.032795
513.000000	0.032769
512.000000	0.032774
511.000000	0.032831
510.000000	0.032754
509.000000	0.032746
508.000000	0.032804
507.000000	0.032818
506.000000	0.032838
505.000000	0.032882
504.000000	0.032903
503.000000	0.032946
502.000000	0.033011
501.000000	0.033037
500.000000	0.033112
499.000000	0.033161
498.000000	0.033202
497.000000	0.033256
496.000000	0.033372
495.000000	0.033464
494.000000	0.033514
493.000000	0.033607
492.000000	0.033726
491.000000	0.033792
490.000000	0.033885
489.000000	0.033984
488.000000	0.034011
487.000000	0.034096
486.000000	0.034215
485.000000	0.034253
484.000000	0.034265
483.000000	0.034281
482.000000	0.034349
481.000000	0.034380
480.000000	0.034361
479.000000	0.034400
478.000000	0.034452
477.000000	0.034506
476.000000	0.034500
475.000000	0.034515
474.000000	0.034512
473.000000	0.034520
472.000000	0.034540
471.000000	0.034559
470.000000	0.034522
469.000000	0.034517
468.000000	0.034481
467.000000	0.034552
466.000000	0.034562
465.000000	0.034435
464.000000	0.034461
463.000000	0.034469
462.000000	0.034382
461.000000	0.034384
460.000000	0.034496
459.000000	0.034397
458.000000	0.034315
457.000000	0.034358
456.000000	0.034369
455.000000	0.034354
454.000000	0.034315
453.000000	0.034241
452.000000	0.034199
451.000000	0.034164
450.000000	0.034184
449.000000	0.034158
448.000000	0.034143
447.000000	0.034119
446.000000	0.034088
445.000000	0.034115
444.000000	0.034090
443.000000	0.034067
442.000000	0.034078
441.000000	0.034078
440.000000	0.034043
439.000000	0.034064
438.000000	0.034133
437.000000	0.034096
436.000000	0.034049
435.000000	0.034003
434.000000	0.034032
433.000000	0.034033
432.000000	0.034016
431.000000	0.034116
430.000000	0.034138
429.000000	0.034019
428.000000	0.034029
427.000000	0.034129
426.000000	0.034058
425.000000	0.034034
424.000000	0.034072
423.000000	0.034023
422.000000	0.033936
421.000000	0.034074
420.000000	0.034201
419.000000	0.034135
418.000000	0.034092
417.000000	0.034076
416.000000	0.034097
415.000000	0.034105
414.000000	0.034011
413.000000	0.034037
412.000000	0.034110
411.000000	0.034063
410.000000	0.034072
409.000000	0.034109
408.000000	0.034165
407.000000	0.034149
406.000000	0.034174
405.000000	0.034128
404.000000	0.034177
403.000000	0.034149
402.000000	0.034265
401.000000	0.034289
400.000000	0.034335
399.000000	0.034324
398.000000	0.034455
397.000000	0.034508
396.000000	0.034370
395.000000	0.034540
394.000000	0.034639
393.000000	0.034556
392.000000	0.034589
391.000000	0.034774
390.000000	0.034666
389.000000	0.034792
388.000000	0.034936
387.000000	0.034947
386.000000	0.035014
385.000000	0.035092
384.000000	0.035302
383.000000	0.035203
382.000000	0.035333
381.000000	0.035386
380.000000	0.035425
379.000000	0.035472
378.000000	0.035469
377.000000	0.035601
376.000000	0.035588
375.000000	0.035660
374.000000	0.035719
373.000000	0.035867
372.000000	0.035801
371.000000	0.035756
370.000000	0.035965
369.000000	0.035947
368.000000	0.036035
367.000000	0.036075
366.000000	0.036198
365.000000	0.036225
364.000000	0.036308
363.000000	0.036306
362.000000	0.036364
361.000000	0.036394
360.000000	0.036419
359.000000	0.036413
358.000000	0.036465
357.000000	0.036516
356.000000	0.036595
355.000000	0.036645
354.000000	0.036583
353.000000	0.036488
352.000000	0.036625
351.000000	0.036681
350.000000	0.036681
349.000000	0.036696
348.000000	0.036717
347.000000	0.036792
346.000000	0.036824
345.000000	0.036815
344.000000	0.036849
343.000000	0.036751
342.000000	0.036750
341.000000	0.036796
340.000000	0.036784
339.000000	0.036808
338.000000	0.036889
337.000000	0.036943
336.000000	0.036858
335.000000	0.036901
334.000000	0.036944
333.000000	0.036989
332.000000	0.036951
331.000000	0.037047
330.000000	0.037151
329.000000	0.037128
328.000000	0.037190
327.000000	0.037288
326.000000	0.037300
325.000000	0.037355
324.000000	0.037281
323.000000	0.037314
322.000000	0.037368
321.000000	0.037432
320.000000	0.037455
319.000000	0.037546
318.000000	0.038231
317.000000	0.039422
316.000000	0.039405
315.000000	0.039458
314.000000	0.039556
313.000000	0.039723
312.000000	0.039838
311.000000	0.039805
310.000000	0.039980
309.000000	0.040200
308.000000	0.040168
307.000000	0.040235
306.000000	0.040377
305.000000	0.040436
304.000000	0.040472
303.000000	0.040519
302.000000	0.040608
301.000000	0.040674
300.000000	0.040724
299.000000	0.040869
298.000000	0.041039
297.000000	0.041082
296.000000	0.041277
295.000000	0.041407
294.000000	0.041351
293.000000	0.041432
292.000000	0.041535
291.000000	0.041783
290.000000	0.041945
289.000000	0.042028
288.000000	0.042172
287.000000	0.042226
286.000000	0.042312
285.000000	0.042514
284.000000	0.042548
283.000000	0.042621
282.000000	0.042807
281.000000	0.042915
280.000000	0.042999
279.000000	0.043128
278.000000	0.043277
277.000000	0.043372
276.000000	0.043503
275.000000	0.043480
274.000000	0.043573
273.000000	0.043728
272.000000	0.043765
271.000000	0.043881
270.000000	0.044061
269.000000	0.044187
268.000000	0.044241
267.000000	0.044379
266.000000	0.044483
265.000000	0.044544
264.000000	0.044608
263.000000	0.044770
262.000000	0.045006
261.000000	0.045072
260.000000	0.045185
259.000000	0.045383
258.000000	0.045524
257.000000	0.045605
256.000000	0.045757
255.000000	0.045965
254.000000	0.046141
253.000000	0.046387
252.000000	0.046593
251.000000	0.046759
250.000000	0.047003
249.000000	0.047194
248.000000	0.047485
247.000000	0.047676
246.000000	0.047905
245.000000	0.048212
244.000000	0.048537
243.000000	0.048828
242.000000	0.049032
241.000000	0.049375
240.000000	0.049762
239.000000	0.050064
238.000000	0.050458
237.000000	0.050812
236.000000	0.051233
235.000000	0.051674
234.000000	0.052202
233.000000	0.052649
232.000000	0.053081
231.000000	0.053601
230.000000	0.054222
229.000000	0.054637
228.000000	0.055116
227.000000	0.055569
226.000000	0.056032
225.000000	0.056595
224.000000	0.057079
223.000000	0.057541
222.000000	0.057993
221.000000	0.058454
220.000000	0.059194
219.000000	0.059881
218.000000	0.060597
217.000000	0.061256
216.000000	0.062188
215.000000	0.063097
214.000000	0.064020
213.000000	0.065086
212.000000	0.066412
211.000000	0.067750
210.000000	0.069171
209.000000	0.070734
208.000000	0.072569
207.000000	0.074396
206.000000	0.076698
205.000000	0.079114
204.000000	0.082085
203.000000	0.084679
202.000000	0.088039
201.000000	0.091849
200.000000	0.096284
