PE UV       SUBTECH     SPECTRUM    ASCII       PEDS        4.00        
   -1
MQ21005.Sample.Raw.asc
11/05/10
13:26:45.00
11/05/10
13:26:45.00
Hermanni Kaartokallio

200.000000
1
Lambda 650
650N8121101
PerkinElmer UV WinLab 6.0.2.0723 / 1.61.00 Lambda 650

0
0
2
0
0
UV/VIS
1
1
1
uv/vis/nir detector
0
0
0
0
Fix
 
0
0.24
0
0
0
 
 
 
0
 
0
319.2
0
Front
100
 
 
 
0
0
0
 
0
 
 
 
0
 
 
0
0
0
0
0
 
 
 
 
0
0
#HDR
-1
-1
#GR
nm
A
1.0
0.0
800.000000
-1.000000
601
8
0.106548
0.032603
#DATA
800.000000	0.041881
799.000000	0.041886
798.000000	0.041955
797.000000	0.042071
796.000000	0.042090
795.000000	0.042414
794.000000	0.042804
793.000000	0.043034
792.000000	0.043117
791.000000	0.043477
790.000000	0.043861
789.000000	0.043986
788.000000	0.044208
787.000000	0.044602
786.000000	0.044864
785.000000	0.045000
784.000000	0.045184
783.000000	0.045456
782.000000	0.045504
781.000000	0.045422
780.000000	0.045582
779.000000	0.045595
778.000000	0.045455
777.000000	0.045467
776.000000	0.045497
775.000000	0.045350
774.000000	0.045257
773.000000	0.045129
772.000000	0.045223
771.000000	0.044955
770.000000	0.044856
769.000000	0.044807
768.000000	0.044754
767.000000	0.044556
766.000000	0.044537
765.000000	0.044573
764.000000	0.044612
763.000000	0.044464
762.000000	0.044484
761.000000	0.044492
760.000000	0.044510
759.000000	0.044376
758.000000	0.044513
757.000000	0.044572
756.000000	0.044312
755.000000	0.044139
754.000000	0.044283
753.000000	0.044178
752.000000	0.043985
751.000000	0.043895
750.000000	0.043905
749.000000	0.043764
748.000000	0.043775
747.000000	0.043677
746.000000	0.043648
745.000000	0.043447
744.000000	0.043404
743.000000	0.043387
742.000000	0.043321
741.000000	0.043188
740.000000	0.043120
739.000000	0.043037
738.000000	0.042804
737.000000	0.042583
736.000000	0.042431
735.000000	0.042147
734.000000	0.041735
733.000000	0.041403
732.000000	0.040997
731.000000	0.040638
730.000000	0.040421
729.000000	0.040170
728.000000	0.039870
727.000000	0.039458
726.000000	0.039257
725.000000	0.039221
724.000000	0.039033
723.000000	0.038836
722.000000	0.038726
721.000000	0.038614
720.000000	0.038342
719.000000	0.038107
718.000000	0.037964
717.000000	0.037774
716.000000	0.037518
715.000000	0.037233
714.000000	0.036976
713.000000	0.036721
712.000000	0.036469
711.000000	0.036219
710.000000	0.035976
709.000000	0.035679
708.000000	0.035411
707.000000	0.035291
706.000000	0.035113
705.000000	0.034914
704.000000	0.034848
703.000000	0.034758
702.000000	0.034664
701.000000	0.034677
700.000000	0.034695
699.000000	0.034560
698.000000	0.034406
697.000000	0.034417
696.000000	0.034570
695.000000	0.034562
694.000000	0.034443
693.000000	0.034436
692.000000	0.034389
691.000000	0.034308
690.000000	0.034262
689.000000	0.034258
688.000000	0.034190
687.000000	0.034101
686.000000	0.034043
685.000000	0.033876
684.000000	0.033730
683.000000	0.033671
682.000000	0.033546
681.000000	0.033413
680.000000	0.033312
679.000000	0.033228
678.000000	0.033112
677.000000	0.032960
676.000000	0.032863
675.000000	0.032804
674.000000	0.032739
673.000000	0.032621
672.000000	0.032742
671.000000	0.032721
670.000000	0.032603
669.000000	0.032644
668.000000	0.032687
667.000000	0.032722
666.000000	0.032793
665.000000	0.032857
664.000000	0.032895
663.000000	0.032892
662.000000	0.032991
661.000000	0.033241
660.000000	0.033407
659.000000	0.033451
658.000000	0.033501
657.000000	0.033641
656.000000	0.033817
655.000000	0.033816
654.000000	0.033946
653.000000	0.034166
652.000000	0.034227
651.000000	0.034296
650.000000	0.034384
649.000000	0.034477
648.000000	0.034483
647.000000	0.034542
646.000000	0.034576
645.000000	0.034525
644.000000	0.034408
643.000000	0.034477
642.000000	0.034498
641.000000	0.034322
640.000000	0.034248
639.000000	0.034230
638.000000	0.034223
637.000000	0.034136
636.000000	0.034101
635.000000	0.034161
634.000000	0.033950
633.000000	0.033832
632.000000	0.033922
631.000000	0.033917
630.000000	0.033888
629.000000	0.033924
628.000000	0.033903
627.000000	0.033935
626.000000	0.033937
625.000000	0.033951
624.000000	0.033935
623.000000	0.034009
622.000000	0.034012
621.000000	0.034083
620.000000	0.034088
619.000000	0.034080
618.000000	0.034014
617.000000	0.034106
616.000000	0.034070
615.000000	0.034012
614.000000	0.034098
613.000000	0.034229
612.000000	0.034136
611.000000	0.034063
610.000000	0.034151
609.000000	0.034192
608.000000	0.034227
607.000000	0.034222
606.000000	0.034244
605.000000	0.034168
604.000000	0.034019
603.000000	0.034258
602.000000	0.034344
601.000000	0.034154
600.000000	0.034164
599.000000	0.034038
598.000000	0.033966
597.000000	0.034089
596.000000	0.034044
595.000000	0.034123
594.000000	0.033966
593.000000	0.034003
592.000000	0.034095
591.000000	0.034184
590.000000	0.034238
589.000000	0.034358
588.000000	0.034706
587.000000	0.034870
586.000000	0.034702
585.000000	0.034905
584.000000	0.035100
583.000000	0.034948
582.000000	0.034961
581.000000	0.035096
580.000000	0.035006
579.000000	0.035152
578.000000	0.035316
577.000000	0.035261
576.000000	0.035278
575.000000	0.035267
574.000000	0.035269
573.000000	0.035422
572.000000	0.035439
571.000000	0.035398
570.000000	0.035530
569.000000	0.035422
568.000000	0.035264
567.000000	0.035395
566.000000	0.035495
565.000000	0.035328
564.000000	0.035331
563.000000	0.035243
562.000000	0.035187
561.000000	0.035138
560.000000	0.035093
559.000000	0.035006
558.000000	0.034967
557.000000	0.034970
556.000000	0.034922
555.000000	0.034920
554.000000	0.034826
553.000000	0.034803
552.000000	0.034783
551.000000	0.034717
550.000000	0.034631
549.000000	0.034616
548.000000	0.034628
547.000000	0.034488
546.000000	0.034506
545.000000	0.034444
544.000000	0.034345
543.000000	0.034218
542.000000	0.034234
541.000000	0.034273
540.000000	0.034158
539.000000	0.034133
538.000000	0.034114
537.000000	0.034034
536.000000	0.033990
535.000000	0.034037
534.000000	0.034072
533.000000	0.034006
532.000000	0.033920
531.000000	0.033952
530.000000	0.033933
529.000000	0.033903
528.000000	0.033947
527.000000	0.034014
526.000000	0.033996
525.000000	0.033945
524.000000	0.033898
523.000000	0.034004
522.000000	0.034014
521.000000	0.034011
520.000000	0.034054
519.000000	0.034087
518.000000	0.034056
517.000000	0.034097
516.000000	0.034164
515.000000	0.034174
514.000000	0.034148
513.000000	0.034160
512.000000	0.034154
511.000000	0.034182
510.000000	0.034198
509.000000	0.034203
508.000000	0.034167
507.000000	0.034168
506.000000	0.034245
505.000000	0.034313
504.000000	0.034312
503.000000	0.034314
502.000000	0.034394
501.000000	0.034400
500.000000	0.034375
499.000000	0.034427
498.000000	0.034546
497.000000	0.034581
496.000000	0.034651
495.000000	0.034769
494.000000	0.034873
493.000000	0.034906
492.000000	0.034974
491.000000	0.035098
490.000000	0.035208
489.000000	0.035282
488.000000	0.035335
487.000000	0.035453
486.000000	0.035516
485.000000	0.035527
484.000000	0.035626
483.000000	0.035678
482.000000	0.035692
481.000000	0.035737
480.000000	0.035738
479.000000	0.035707
478.000000	0.035733
477.000000	0.035759
476.000000	0.035647
475.000000	0.035541
474.000000	0.035511
473.000000	0.035568
472.000000	0.035585
471.000000	0.035602
470.000000	0.035642
469.000000	0.035671
468.000000	0.035645
467.000000	0.035639
466.000000	0.035659
465.000000	0.035678
464.000000	0.035685
463.000000	0.035673
462.000000	0.035687
461.000000	0.035643
460.000000	0.035664
459.000000	0.035621
458.000000	0.035616
457.000000	0.035619
456.000000	0.035632
455.000000	0.035628
454.000000	0.035560
453.000000	0.035457
452.000000	0.035393
451.000000	0.035448
450.000000	0.035399
449.000000	0.035301
448.000000	0.035274
447.000000	0.035261
446.000000	0.035264
445.000000	0.035267
444.000000	0.035259
443.000000	0.035247
442.000000	0.035224
441.000000	0.035173
440.000000	0.035156
439.000000	0.035181
438.000000	0.035198
437.000000	0.035176
436.000000	0.035136
435.000000	0.035053
434.000000	0.035056
433.000000	0.035096
432.000000	0.035042
431.000000	0.035025
430.000000	0.035040
429.000000	0.034979
428.000000	0.034976
427.000000	0.035062
426.000000	0.035023
425.000000	0.034996
424.000000	0.034970
423.000000	0.035018
422.000000	0.034991
421.000000	0.034987
420.000000	0.035037
419.000000	0.034990
418.000000	0.034961
417.000000	0.034945
416.000000	0.034843
415.000000	0.034975
414.000000	0.034982
413.000000	0.034895
412.000000	0.034963
411.000000	0.034981
410.000000	0.034989
409.000000	0.034971
408.000000	0.035025
407.000000	0.035092
406.000000	0.035091
405.000000	0.035060
404.000000	0.035086
403.000000	0.035044
402.000000	0.035105
401.000000	0.035127
400.000000	0.035158
399.000000	0.035128
398.000000	0.035111
397.000000	0.035249
396.000000	0.035262
395.000000	0.035194
394.000000	0.035330
393.000000	0.035193
392.000000	0.035394
391.000000	0.035426
390.000000	0.035426
389.000000	0.035568
388.000000	0.035665
387.000000	0.035665
386.000000	0.035813
385.000000	0.035840
384.000000	0.035948
383.000000	0.036013
382.000000	0.036093
381.000000	0.036113
380.000000	0.036146
379.000000	0.036273
378.000000	0.036320
377.000000	0.036306
376.000000	0.036421
375.000000	0.036582
374.000000	0.036695
373.000000	0.036729
372.000000	0.036779
371.000000	0.036750
370.000000	0.036821
369.000000	0.036987
368.000000	0.037085
367.000000	0.037151
366.000000	0.037161
365.000000	0.037236
364.000000	0.037421
363.000000	0.037473
362.000000	0.037497
361.000000	0.037559
360.000000	0.037501
359.000000	0.037609
358.000000	0.037650
357.000000	0.037685
356.000000	0.037762
355.000000	0.037884
354.000000	0.037749
353.000000	0.037748
352.000000	0.037873
351.000000	0.037959
350.000000	0.038037
349.000000	0.038002
348.000000	0.038029
347.000000	0.038009
346.000000	0.038116
345.000000	0.038125
344.000000	0.038147
343.000000	0.038054
342.000000	0.038114
341.000000	0.038198
340.000000	0.038135
339.000000	0.038141
338.000000	0.038203
337.000000	0.038184
336.000000	0.038195
335.000000	0.038285
334.000000	0.038309
333.000000	0.038243
332.000000	0.038234
331.000000	0.038412
330.000000	0.038438
329.000000	0.038435
328.000000	0.038564
327.000000	0.038664
326.000000	0.038593
325.000000	0.038638
324.000000	0.038615
323.000000	0.038626
322.000000	0.038689
321.000000	0.038740
320.000000	0.038814
319.000000	0.038869
318.000000	0.039450
317.000000	0.040524
316.000000	0.040619
315.000000	0.040650
314.000000	0.040754
313.000000	0.040850
312.000000	0.040987
311.000000	0.041034
310.000000	0.041102
309.000000	0.041279
308.000000	0.041345
307.000000	0.041423
306.000000	0.041537
305.000000	0.041640
304.000000	0.041673
303.000000	0.041688
302.000000	0.041784
301.000000	0.041883
300.000000	0.041962
299.000000	0.042116
298.000000	0.042310
297.000000	0.042408
296.000000	0.042568
295.000000	0.042652
294.000000	0.042735
293.000000	0.042868
292.000000	0.042942
291.000000	0.043197
290.000000	0.043413
289.000000	0.043462
288.000000	0.043563
287.000000	0.043689
286.000000	0.043729
285.000000	0.043907
284.000000	0.044042
283.000000	0.044165
282.000000	0.044327
281.000000	0.044401
280.000000	0.044465
279.000000	0.044642
278.000000	0.044851
277.000000	0.044974
276.000000	0.045075
275.000000	0.045156
274.000000	0.045277
273.000000	0.045390
272.000000	0.045451
271.000000	0.045542
270.000000	0.045730
269.000000	0.045918
268.000000	0.045967
267.000000	0.046172
266.000000	0.046332
265.000000	0.046384
264.000000	0.046420
263.000000	0.046578
262.000000	0.046795
261.000000	0.046914
260.000000	0.047041
259.000000	0.047198
258.000000	0.047327
257.000000	0.047491
256.000000	0.047676
255.000000	0.047852
254.000000	0.048075
253.000000	0.048319
252.000000	0.048548
251.000000	0.048742
250.000000	0.048928
249.000000	0.049231
248.000000	0.049513
247.000000	0.049654
246.000000	0.049974
245.000000	0.050259
244.000000	0.050621
243.000000	0.050967
242.000000	0.051241
241.000000	0.051610
240.000000	0.052093
239.000000	0.052343
238.000000	0.052864
237.000000	0.053202
236.000000	0.053657
235.000000	0.054249
234.000000	0.054880
233.000000	0.055482
232.000000	0.056007
231.000000	0.056603
230.000000	0.057327
229.000000	0.057883
228.000000	0.058415
227.000000	0.059185
226.000000	0.059812
225.000000	0.060476
224.000000	0.061076
223.000000	0.061799
222.000000	0.062450
221.000000	0.063093
220.000000	0.063935
219.000000	0.064925
218.000000	0.065681
217.000000	0.066611
216.000000	0.067772
215.000000	0.068808
214.000000	0.069928
213.000000	0.071308
212.000000	0.072779
211.000000	0.074307
210.000000	0.075895
209.000000	0.077754
208.000000	0.079614
207.000000	0.081793
206.000000	0.084259
205.000000	0.086938
204.000000	0.090083
203.000000	0.093061
202.000000	0.096969
201.000000	0.101354
200.000000	0.106548
