PE UV       SUBTECH     SPECTRUM    ASCII       PEDS        4.00        
   -1
MQ31005.Sample.Raw.asc
11/05/10
14:27:05.00
11/05/10
14:27:05.00
Hermanni Kaartokallio

200.000000
1
Lambda 650
650N8121101
PerkinElmer UV WinLab 6.0.2.0723 / 1.61.00 Lambda 650

0
0
2
0
0
UV/VIS
1
1
1
uv/vis/nir detector
0
0
0
0
Fix
 
0
0.24
0
0
0
 
 
 
0
 
0
319.2
0
Front
100
 
 
 
0
0
0
 
0
 
 
 
0
 
 
0
0
0
0
0
 
 
 
 
0
0
#HDR
-1
-1
#GR
nm
A
1.0
0.0
800.000000
-1.000000
601
8
0.117728
0.032519
#DATA
800.000000	0.041925
799.000000	0.041813
798.000000	0.042091
797.000000	0.042155
796.000000	0.042118
795.000000	0.042370
794.000000	0.042810
793.000000	0.042919
792.000000	0.043139
791.000000	0.043417
790.000000	0.043839
789.000000	0.044085
788.000000	0.044123
787.000000	0.044526
786.000000	0.044701
785.000000	0.044806
784.000000	0.045021
783.000000	0.045199
782.000000	0.045241
781.000000	0.045243
780.000000	0.045326
779.000000	0.045433
778.000000	0.045300
777.000000	0.045373
776.000000	0.045393
775.000000	0.045277
774.000000	0.045185
773.000000	0.045229
772.000000	0.045201
771.000000	0.045010
770.000000	0.044936
769.000000	0.044987
768.000000	0.044926
767.000000	0.044805
766.000000	0.044826
765.000000	0.044819
764.000000	0.044912
763.000000	0.044862
762.000000	0.044966
761.000000	0.044954
760.000000	0.044935
759.000000	0.044792
758.000000	0.044899
757.000000	0.044898
756.000000	0.044696
755.000000	0.044647
754.000000	0.044693
753.000000	0.044534
752.000000	0.044257
751.000000	0.044212
750.000000	0.044296
749.000000	0.044096
748.000000	0.044046
747.000000	0.044012
746.000000	0.043973
745.000000	0.043828
744.000000	0.043779
743.000000	0.043697
742.000000	0.043550
741.000000	0.043376
740.000000	0.043325
739.000000	0.043224
738.000000	0.042950
737.000000	0.042651
736.000000	0.042421
735.000000	0.042131
734.000000	0.041717
733.000000	0.041355
732.000000	0.040993
731.000000	0.040543
730.000000	0.040251
729.000000	0.040071
728.000000	0.039790
727.000000	0.039388
726.000000	0.039188
725.000000	0.039102
724.000000	0.038915
723.000000	0.038692
722.000000	0.038532
721.000000	0.038367
720.000000	0.038122
719.000000	0.037952
718.000000	0.037788
717.000000	0.037524
716.000000	0.037189
715.000000	0.036915
714.000000	0.036733
713.000000	0.036447
712.000000	0.036100
711.000000	0.035900
710.000000	0.035712
709.000000	0.035454
708.000000	0.035234
707.000000	0.035169
706.000000	0.035016
705.000000	0.034869
704.000000	0.034838
703.000000	0.034743
702.000000	0.034645
701.000000	0.034622
700.000000	0.034616
699.000000	0.034562
698.000000	0.034476
697.000000	0.034521
696.000000	0.034586
695.000000	0.034504
694.000000	0.034435
693.000000	0.034481
692.000000	0.034454
691.000000	0.034297
690.000000	0.034212
689.000000	0.034244
688.000000	0.034148
687.000000	0.034030
686.000000	0.033998
685.000000	0.033821
684.000000	0.033659
683.000000	0.033559
682.000000	0.033454
681.000000	0.033417
680.000000	0.033302
679.000000	0.033203
678.000000	0.033127
677.000000	0.033002
676.000000	0.032833
675.000000	0.032770
674.000000	0.032724
673.000000	0.032613
672.000000	0.032519
671.000000	0.032581
670.000000	0.032559
669.000000	0.032586
668.000000	0.032666
667.000000	0.032653
666.000000	0.032703
665.000000	0.032747
664.000000	0.032818
663.000000	0.032862
662.000000	0.032946
661.000000	0.033149
660.000000	0.033274
659.000000	0.033340
658.000000	0.033333
657.000000	0.033470
656.000000	0.033647
655.000000	0.033713
654.000000	0.033811
653.000000	0.034028
652.000000	0.034061
651.000000	0.034155
650.000000	0.034244
649.000000	0.034343
648.000000	0.034365
647.000000	0.034369
646.000000	0.034308
645.000000	0.034340
644.000000	0.034246
643.000000	0.034296
642.000000	0.034322
641.000000	0.034151
640.000000	0.034050
639.000000	0.034060
638.000000	0.034013
637.000000	0.033891
636.000000	0.033844
635.000000	0.033833
634.000000	0.033787
633.000000	0.033663
632.000000	0.033751
631.000000	0.033779
630.000000	0.033718
629.000000	0.033852
628.000000	0.033822
627.000000	0.033853
626.000000	0.033784
625.000000	0.033808
624.000000	0.033853
623.000000	0.033958
622.000000	0.033906
621.000000	0.034043
620.000000	0.034102
619.000000	0.034004
618.000000	0.034018
617.000000	0.034135
616.000000	0.034108
615.000000	0.034116
614.000000	0.034203
613.000000	0.034219
612.000000	0.034171
611.000000	0.034101
610.000000	0.034189
609.000000	0.034321
608.000000	0.034263
607.000000	0.034217
606.000000	0.034310
605.000000	0.034308
604.000000	0.034133
603.000000	0.034365
602.000000	0.034298
601.000000	0.034334
600.000000	0.034278
599.000000	0.034210
598.000000	0.034155
597.000000	0.034352
596.000000	0.034165
595.000000	0.034257
594.000000	0.034116
593.000000	0.034076
592.000000	0.034205
591.000000	0.034364
590.000000	0.034438
589.000000	0.034252
588.000000	0.034407
587.000000	0.034442
586.000000	0.034305
585.000000	0.034535
584.000000	0.034694
583.000000	0.034552
582.000000	0.034513
581.000000	0.034636
580.000000	0.034635
579.000000	0.034806
578.000000	0.034809
577.000000	0.034843
576.000000	0.034866
575.000000	0.034871
574.000000	0.034859
573.000000	0.035010
572.000000	0.035097
571.000000	0.034979
570.000000	0.035007
569.000000	0.034988
568.000000	0.034861
567.000000	0.034952
566.000000	0.035050
565.000000	0.034811
564.000000	0.034752
563.000000	0.034711
562.000000	0.034590
561.000000	0.034595
560.000000	0.034527
559.000000	0.034370
558.000000	0.034373
557.000000	0.034310
556.000000	0.034208
555.000000	0.034183
554.000000	0.034064
553.000000	0.033914
552.000000	0.033814
551.000000	0.033819
550.000000	0.033761
549.000000	0.033705
548.000000	0.033680
547.000000	0.033690
546.000000	0.033590
545.000000	0.033485
544.000000	0.033434
543.000000	0.033373
542.000000	0.033365
541.000000	0.033426
540.000000	0.033396
539.000000	0.033336
538.000000	0.033265
537.000000	0.033320
536.000000	0.033367
535.000000	0.033436
534.000000	0.033460
533.000000	0.033433
532.000000	0.033422
531.000000	0.033437
530.000000	0.033518
529.000000	0.033537
528.000000	0.033539
527.000000	0.033577
526.000000	0.033656
525.000000	0.033633
524.000000	0.033616
523.000000	0.033702
522.000000	0.033705
521.000000	0.033705
520.000000	0.033738
519.000000	0.033720
518.000000	0.033727
517.000000	0.033774
516.000000	0.033798
515.000000	0.033867
514.000000	0.033902
513.000000	0.033834
512.000000	0.033852
511.000000	0.033961
510.000000	0.033886
509.000000	0.033841
508.000000	0.033893
507.000000	0.033981
506.000000	0.034059
505.000000	0.034078
504.000000	0.034106
503.000000	0.034138
502.000000	0.034185
501.000000	0.034262
500.000000	0.034284
499.000000	0.034290
498.000000	0.034435
497.000000	0.034552
496.000000	0.034635
495.000000	0.034706
494.000000	0.034836
493.000000	0.034919
492.000000	0.034986
491.000000	0.035105
490.000000	0.035224
489.000000	0.035300
488.000000	0.035331
487.000000	0.035408
486.000000	0.035510
485.000000	0.035527
484.000000	0.035549
483.000000	0.035640
482.000000	0.035722
481.000000	0.035745
480.000000	0.035681
479.000000	0.035699
478.000000	0.035776
477.000000	0.035830
476.000000	0.035779
475.000000	0.035802
474.000000	0.035855
473.000000	0.035893
472.000000	0.035871
471.000000	0.035901
470.000000	0.035875
469.000000	0.035829
468.000000	0.035828
467.000000	0.035842
466.000000	0.035864
465.000000	0.035852
464.000000	0.035930
463.000000	0.035869
462.000000	0.035754
461.000000	0.035671
460.000000	0.035687
459.000000	0.035657
458.000000	0.035647
457.000000	0.035702
456.000000	0.035697
455.000000	0.035658
454.000000	0.035574
453.000000	0.035511
452.000000	0.035475
451.000000	0.035438
450.000000	0.035427
449.000000	0.035331
448.000000	0.035349
447.000000	0.035388
446.000000	0.035410
445.000000	0.035424
444.000000	0.035363
443.000000	0.035343
442.000000	0.035336
441.000000	0.035361
440.000000	0.035314
439.000000	0.035259
438.000000	0.035289
437.000000	0.035283
436.000000	0.035230
435.000000	0.035234
434.000000	0.035211
433.000000	0.035254
432.000000	0.035158
431.000000	0.035228
430.000000	0.035267
429.000000	0.035142
428.000000	0.035260
427.000000	0.035301
426.000000	0.035213
425.000000	0.035135
424.000000	0.035191
423.000000	0.035177
422.000000	0.035135
421.000000	0.035143
420.000000	0.035246
419.000000	0.035206
418.000000	0.035168
417.000000	0.035238
416.000000	0.035281
415.000000	0.035307
414.000000	0.035194
413.000000	0.035284
412.000000	0.035355
411.000000	0.035317
410.000000	0.035236
409.000000	0.035303
408.000000	0.035240
407.000000	0.035294
406.000000	0.035419
405.000000	0.035363
404.000000	0.035456
403.000000	0.035363
402.000000	0.035389
401.000000	0.035502
400.000000	0.035520
399.000000	0.035504
398.000000	0.035626
397.000000	0.035706
396.000000	0.035548
395.000000	0.035671
394.000000	0.035842
393.000000	0.035713
392.000000	0.035834
391.000000	0.036028
390.000000	0.035922
389.000000	0.035947
388.000000	0.036199
387.000000	0.036238
386.000000	0.036400
385.000000	0.036373
384.000000	0.036542
383.000000	0.036529
382.000000	0.036612
381.000000	0.036693
380.000000	0.036838
379.000000	0.036904
378.000000	0.036863
377.000000	0.036878
376.000000	0.036943
375.000000	0.036983
374.000000	0.037153
373.000000	0.037300
372.000000	0.037341
371.000000	0.037242
370.000000	0.037425
369.000000	0.037452
368.000000	0.037568
367.000000	0.037619
366.000000	0.037766
365.000000	0.037788
364.000000	0.037881
363.000000	0.037829
362.000000	0.037954
361.000000	0.037984
360.000000	0.037926
359.000000	0.038122
358.000000	0.038269
357.000000	0.038010
356.000000	0.038074
355.000000	0.038195
354.000000	0.038176
353.000000	0.038133
352.000000	0.038321
351.000000	0.038411
350.000000	0.038381
349.000000	0.038281
348.000000	0.038433
347.000000	0.038456
346.000000	0.038504
345.000000	0.038427
344.000000	0.038471
343.000000	0.038453
342.000000	0.038449
341.000000	0.038446
340.000000	0.038570
339.000000	0.038558
338.000000	0.038620
337.000000	0.038757
336.000000	0.038763
335.000000	0.038655
334.000000	0.038678
333.000000	0.038792
332.000000	0.038800
331.000000	0.038788
330.000000	0.038889
329.000000	0.039035
328.000000	0.039062
327.000000	0.039161
326.000000	0.039238
325.000000	0.039224
324.000000	0.039097
323.000000	0.039185
322.000000	0.039368
321.000000	0.039392
320.000000	0.039411
319.000000	0.039543
318.000000	0.039952
317.000000	0.040372
316.000000	0.040497
315.000000	0.040645
314.000000	0.040666
313.000000	0.040826
312.000000	0.040930
311.000000	0.040946
310.000000	0.041120
309.000000	0.041372
308.000000	0.041339
307.000000	0.041389
306.000000	0.041543
305.000000	0.041692
304.000000	0.041737
303.000000	0.041816
302.000000	0.041912
301.000000	0.042048
300.000000	0.042116
299.000000	0.042264
298.000000	0.042571
297.000000	0.042640
296.000000	0.042682
295.000000	0.042890
294.000000	0.042989
293.000000	0.043077
292.000000	0.043225
291.000000	0.043464
290.000000	0.043666
289.000000	0.043686
288.000000	0.043848
287.000000	0.044104
286.000000	0.044233
285.000000	0.044350
284.000000	0.044518
283.000000	0.044710
282.000000	0.044836
281.000000	0.045017
280.000000	0.045223
279.000000	0.045252
278.000000	0.045329
277.000000	0.045567
276.000000	0.045761
275.000000	0.045805
274.000000	0.045917
273.000000	0.046125
272.000000	0.046310
271.000000	0.046374
270.000000	0.046589
269.000000	0.046829
268.000000	0.046831
267.000000	0.046938
266.000000	0.047242
265.000000	0.047418
264.000000	0.047413
263.000000	0.047555
262.000000	0.047848
261.000000	0.047972
260.000000	0.048108
259.000000	0.048337
258.000000	0.048502
257.000000	0.048618
256.000000	0.048809
255.000000	0.049107
254.000000	0.049407
253.000000	0.049607
252.000000	0.049819
251.000000	0.050113
250.000000	0.050357
249.000000	0.050554
248.000000	0.050901
247.000000	0.051139
246.000000	0.051414
245.000000	0.051790
244.000000	0.052245
243.000000	0.052647
242.000000	0.052862
241.000000	0.053309
240.000000	0.053924
239.000000	0.054251
238.000000	0.054630
237.000000	0.055182
236.000000	0.055841
235.000000	0.056419
234.000000	0.057153
233.000000	0.057988
232.000000	0.058694
231.000000	0.059400
230.000000	0.060206
229.000000	0.060970
228.000000	0.061766
227.000000	0.062466
226.000000	0.063307
225.000000	0.064234
224.000000	0.064842
223.000000	0.065596
222.000000	0.066397
221.000000	0.067247
220.000000	0.067989
219.000000	0.069099
218.000000	0.070077
217.000000	0.070999
216.000000	0.072276
215.000000	0.073543
214.000000	0.074883
213.000000	0.076351
212.000000	0.078089
211.000000	0.079916
210.000000	0.081773
209.000000	0.083855
208.000000	0.086219
207.000000	0.088775
206.000000	0.091503
205.000000	0.094500
204.000000	0.098225
203.000000	0.101805
202.000000	0.106345
201.000000	0.111525
200.000000	0.117728
