PE UV       SUBTECH     SPECTRUM    ASCII       PEDS        4.00        
   -1
MQ1.Sample.Raw.asc
10/09/03
09:26:09.00
10/09/03
09:26:09.00
Hermanni Kaartokallio

200.000000
1
Lambda 650
650N8121101
PerkinElmer UV WinLab 6.0.2.0723 / 1.61.00 Lambda 650

0
0
2
0
0
UV/VIS
1
1
1
uv/vis/nir detector
0
0
0
0
Fix
 
0
0.24
0
0
0
 
 
 
0
 
0
319.2
0
Front
100
 
 
 
0
0
0
 
0
 
 
 
0
 
 
0
0
0
0
0
 
 
 
 
0
0
#HDR
-1
-1
#GR
nm
A
1.0
0.0
800.000000
-1.000000
601
8
0.161445
0.032760
#DATA
800.000000	0.079297
799.000000	0.079805
798.000000	0.080539
797.000000	0.080756
796.000000	0.081064
795.000000	0.081576
794.000000	0.082052
793.000000	0.082442
792.000000	0.082794
791.000000	0.083379
790.000000	0.083768
789.000000	0.084099
788.000000	0.084640
787.000000	0.085234
786.000000	0.085471
785.000000	0.085777
784.000000	0.086348
783.000000	0.086764
782.000000	0.086936
781.000000	0.087414
780.000000	0.087796
779.000000	0.087981
778.000000	0.088286
777.000000	0.088682
776.000000	0.088891
775.000000	0.089102
774.000000	0.089215
773.000000	0.089488
772.000000	0.089706
771.000000	0.089713
770.000000	0.089936
769.000000	0.090351
768.000000	0.090081
767.000000	0.090215
766.000000	0.090455
765.000000	0.090631
764.000000	0.090596
763.000000	0.090682
762.000000	0.090614
761.000000	0.090618
760.000000	0.090659
759.000000	0.090782
758.000000	0.090783
757.000000	0.090629
756.000000	0.090500
755.000000	0.090662
754.000000	0.090690
753.000000	0.090565
752.000000	0.090615
751.000000	0.090650
750.000000	0.090540
749.000000	0.090562
748.000000	0.090647
747.000000	0.090663
746.000000	0.090514
745.000000	0.090418
744.000000	0.090459
743.000000	0.090293
742.000000	0.090071
741.000000	0.089853
740.000000	0.089452
739.000000	0.088730
738.000000	0.087843
737.000000	0.086856
736.000000	0.085593
735.000000	0.083838
734.000000	0.081826
733.000000	0.079649
732.000000	0.077061
731.000000	0.074434
730.000000	0.072003
729.000000	0.069617
728.000000	0.067408
727.000000	0.065436
726.000000	0.063767
725.000000	0.062359
724.000000	0.061011
723.000000	0.059674
722.000000	0.058518
721.000000	0.057229
720.000000	0.055928
719.000000	0.054976
718.000000	0.053882
717.000000	0.052702
716.000000	0.051681
715.000000	0.050703
714.000000	0.049681
713.000000	0.048670
712.000000	0.047897
711.000000	0.047210
710.000000	0.046463
709.000000	0.045813
708.000000	0.045219
707.000000	0.044674
706.000000	0.044108
705.000000	0.043647
704.000000	0.043196
703.000000	0.042638
702.000000	0.042223
701.000000	0.041976
700.000000	0.041695
699.000000	0.041308
698.000000	0.041004
697.000000	0.040788
696.000000	0.040470
695.000000	0.040188
694.000000	0.040075
693.000000	0.040000
692.000000	0.039827
691.000000	0.039637
690.000000	0.039556
689.000000	0.039484
688.000000	0.039450
687.000000	0.039513
686.000000	0.039530
685.000000	0.039471
684.000000	0.039527
683.000000	0.039634
682.000000	0.039551
681.000000	0.039557
680.000000	0.039693
679.000000	0.039836
678.000000	0.039887
677.000000	0.039922
676.000000	0.039944
675.000000	0.039919
674.000000	0.039983
673.000000	0.040161
672.000000	0.040231
671.000000	0.040188
670.000000	0.040161
669.000000	0.040205
668.000000	0.040256
667.000000	0.040153
666.000000	0.040161
665.000000	0.040183
664.000000	0.040099
663.000000	0.040011
662.000000	0.040061
661.000000	0.039955
660.000000	0.039823
659.000000	0.039699
658.000000	0.039629
657.000000	0.039453
656.000000	0.039190
655.000000	0.039063
654.000000	0.038966
653.000000	0.038793
652.000000	0.038594
651.000000	0.038554
650.000000	0.038559
649.000000	0.038404
648.000000	0.038257
647.000000	0.038258
646.000000	0.038142
645.000000	0.038021
644.000000	0.038012
643.000000	0.038021
642.000000	0.037906
641.000000	0.037730
640.000000	0.037668
639.000000	0.037687
638.000000	0.037485
637.000000	0.037498
636.000000	0.037412
635.000000	0.037302
634.000000	0.037073
633.000000	0.037092
632.000000	0.037117
631.000000	0.037019
630.000000	0.036941
629.000000	0.036928
628.000000	0.036706
627.000000	0.036646
626.000000	0.036642
625.000000	0.036764
624.000000	0.036624
623.000000	0.036525
622.000000	0.036442
621.000000	0.036526
620.000000	0.036505
619.000000	0.036416
618.000000	0.036469
617.000000	0.036408
616.000000	0.036230
615.000000	0.036351
614.000000	0.036507
613.000000	0.036457
612.000000	0.036325
611.000000	0.036432
610.000000	0.036455
609.000000	0.036440
608.000000	0.036457
607.000000	0.036407
606.000000	0.036446
605.000000	0.036372
604.000000	0.036272
603.000000	0.036289
602.000000	0.036119
601.000000	0.035798
600.000000	0.035631
599.000000	0.035393
598.000000	0.035030
597.000000	0.034678
596.000000	0.034586
595.000000	0.034425
594.000000	0.034260
593.000000	0.034247
592.000000	0.034131
591.000000	0.033813
590.000000	0.033736
589.000000	0.033714
588.000000	0.033642
587.000000	0.033507
586.000000	0.033479
585.000000	0.033425
584.000000	0.033267
583.000000	0.033122
582.000000	0.033168
581.000000	0.033202
580.000000	0.033050
579.000000	0.032932
578.000000	0.033095
577.000000	0.032980
576.000000	0.032887
575.000000	0.032984
574.000000	0.032941
573.000000	0.032760
572.000000	0.032788
571.000000	0.032960
570.000000	0.032867
569.000000	0.032779
568.000000	0.032781
567.000000	0.032791
566.000000	0.032761
565.000000	0.032817
564.000000	0.032919
563.000000	0.032948
562.000000	0.032915
561.000000	0.032883
560.000000	0.032921
559.000000	0.032978
558.000000	0.032952
557.000000	0.033147
556.000000	0.033202
555.000000	0.033124
554.000000	0.033178
553.000000	0.033297
552.000000	0.033316
551.000000	0.033275
550.000000	0.033349
549.000000	0.033370
548.000000	0.033331
547.000000	0.033379
546.000000	0.033594
545.000000	0.033509
544.000000	0.033491
543.000000	0.033596
542.000000	0.033663
541.000000	0.033690
540.000000	0.033753
539.000000	0.033844
538.000000	0.033798
537.000000	0.033765
536.000000	0.033754
535.000000	0.033937
534.000000	0.033970
533.000000	0.033914
532.000000	0.034037
531.000000	0.034098
530.000000	0.034016
529.000000	0.034092
528.000000	0.034157
527.000000	0.034182
526.000000	0.034104
525.000000	0.034122
524.000000	0.034213
523.000000	0.034259
522.000000	0.034255
521.000000	0.034265
520.000000	0.034318
519.000000	0.034308
518.000000	0.034303
517.000000	0.034436
516.000000	0.034468
515.000000	0.034430
514.000000	0.034481
513.000000	0.034508
512.000000	0.034406
511.000000	0.034379
510.000000	0.034459
509.000000	0.034434
508.000000	0.034315
507.000000	0.034294
506.000000	0.034373
505.000000	0.034401
504.000000	0.034390
503.000000	0.034469
502.000000	0.034468
501.000000	0.034346
500.000000	0.034339
499.000000	0.034487
498.000000	0.034543
497.000000	0.034467
496.000000	0.034482
495.000000	0.034560
494.000000	0.034520
493.000000	0.034506
492.000000	0.034590
491.000000	0.034598
490.000000	0.034525
489.000000	0.034500
488.000000	0.034554
487.000000	0.034556
486.000000	0.034493
485.000000	0.034473
484.000000	0.034547
483.000000	0.034506
482.000000	0.034393
481.000000	0.034430
480.000000	0.034439
479.000000	0.034361
478.000000	0.034347
477.000000	0.034355
476.000000	0.034334
475.000000	0.034321
474.000000	0.034433
473.000000	0.034485
472.000000	0.034401
471.000000	0.034285
470.000000	0.034397
469.000000	0.034483
468.000000	0.034488
467.000000	0.034537
466.000000	0.034655
465.000000	0.034577
464.000000	0.034521
463.000000	0.034619
462.000000	0.034739
461.000000	0.034743
460.000000	0.034736
459.000000	0.034763
458.000000	0.034761
457.000000	0.034729
456.000000	0.034869
455.000000	0.034977
454.000000	0.034980
453.000000	0.034863
452.000000	0.034996
451.000000	0.035124
450.000000	0.035064
449.000000	0.035118
448.000000	0.035179
447.000000	0.035164
446.000000	0.035121
445.000000	0.035210
444.000000	0.035383
443.000000	0.035371
442.000000	0.035305
441.000000	0.035350
440.000000	0.035393
439.000000	0.035453
438.000000	0.035452
437.000000	0.035609
436.000000	0.035691
435.000000	0.035559
434.000000	0.035582
433.000000	0.035716
432.000000	0.035710
431.000000	0.035768
430.000000	0.035872
429.000000	0.035880
428.000000	0.035802
427.000000	0.035944
426.000000	0.036094
425.000000	0.036087
424.000000	0.036012
423.000000	0.036099
422.000000	0.036260
421.000000	0.036247
420.000000	0.036252
419.000000	0.036393
418.000000	0.036453
417.000000	0.036298
416.000000	0.036445
415.000000	0.036668
414.000000	0.036554
413.000000	0.036534
412.000000	0.036777
411.000000	0.036676
410.000000	0.036690
409.000000	0.036825
408.000000	0.036936
407.000000	0.036884
406.000000	0.036794
405.000000	0.036837
404.000000	0.037070
403.000000	0.037003
402.000000	0.037053
401.000000	0.037156
400.000000	0.037187
399.000000	0.037041
398.000000	0.037181
397.000000	0.037246
396.000000	0.037257
395.000000	0.037201
394.000000	0.037327
393.000000	0.037480
392.000000	0.037418
391.000000	0.037337
390.000000	0.037559
389.000000	0.037601
388.000000	0.037529
387.000000	0.037614
386.000000	0.037718
385.000000	0.037679
384.000000	0.037649
383.000000	0.037767
382.000000	0.037827
381.000000	0.037668
380.000000	0.037651
379.000000	0.037895
378.000000	0.037761
377.000000	0.037592
376.000000	0.037729
375.000000	0.037805
374.000000	0.037743
373.000000	0.037809
372.000000	0.038013
371.000000	0.037957
370.000000	0.037825
369.000000	0.038063
368.000000	0.038093
367.000000	0.038059
366.000000	0.038066
365.000000	0.038124
364.000000	0.038215
363.000000	0.038187
362.000000	0.038343
361.000000	0.038409
360.000000	0.038251
359.000000	0.038228
358.000000	0.038445
357.000000	0.038514
356.000000	0.038488
355.000000	0.038568
354.000000	0.038696
353.000000	0.038561
352.000000	0.038655
351.000000	0.038791
350.000000	0.038857
349.000000	0.038856
348.000000	0.038801
347.000000	0.038947
346.000000	0.039052
345.000000	0.038971
344.000000	0.039084
343.000000	0.039183
342.000000	0.039176
341.000000	0.039087
340.000000	0.039323
339.000000	0.039516
338.000000	0.039442
337.000000	0.039459
336.000000	0.039597
335.000000	0.039573
334.000000	0.039638
333.000000	0.039847
332.000000	0.039932
331.000000	0.039879
330.000000	0.039834
329.000000	0.040028
328.000000	0.040160
327.000000	0.040172
326.000000	0.040222
325.000000	0.040442
324.000000	0.040424
323.000000	0.040298
322.000000	0.040495
321.000000	0.040645
320.000000	0.040633
319.000000	0.040673
318.000000	0.040683
317.000000	0.040540
316.000000	0.040689
315.000000	0.040922
314.000000	0.040903
313.000000	0.041004
312.000000	0.041239
311.000000	0.041270
310.000000	0.041253
309.000000	0.041406
308.000000	0.041578
307.000000	0.041628
306.000000	0.041712
305.000000	0.041835
304.000000	0.041881
303.000000	0.041973
302.000000	0.042164
301.000000	0.042360
300.000000	0.042448
299.000000	0.042457
298.000000	0.042610
297.000000	0.042786
296.000000	0.042825
295.000000	0.042987
294.000000	0.043256
293.000000	0.043274
292.000000	0.043304
291.000000	0.043541
290.000000	0.043846
289.000000	0.044025
288.000000	0.044122
287.000000	0.044347
286.000000	0.044503
285.000000	0.044593
284.000000	0.044776
283.000000	0.045107
282.000000	0.045251
281.000000	0.045253
280.000000	0.045448
279.000000	0.045714
278.000000	0.045788
277.000000	0.045913
276.000000	0.046161
275.000000	0.046220
274.000000	0.046314
273.000000	0.046558
272.000000	0.046779
271.000000	0.046860
270.000000	0.046978
269.000000	0.047143
268.000000	0.047286
267.000000	0.047484
266.000000	0.047737
265.000000	0.048051
264.000000	0.048236
263.000000	0.048241
262.000000	0.048456
261.000000	0.048836
260.000000	0.048950
259.000000	0.049245
258.000000	0.049636
257.000000	0.049805
256.000000	0.049848
255.000000	0.050266
254.000000	0.050684
253.000000	0.050849
252.000000	0.051140
251.000000	0.051503
250.000000	0.051869
249.000000	0.052266
248.000000	0.052594
247.000000	0.053104
246.000000	0.053549
245.000000	0.053786
244.000000	0.054355
243.000000	0.054989
242.000000	0.055434
241.000000	0.055917
240.000000	0.056462
239.000000	0.057001
238.000000	0.057557
237.000000	0.058247
236.000000	0.058956
235.000000	0.059437
234.000000	0.060065
233.000000	0.060741
232.000000	0.061488
231.000000	0.062112
230.000000	0.062781
229.000000	0.063657
228.000000	0.064366
227.000000	0.064978
226.000000	0.065788
225.000000	0.066679
224.000000	0.067505
223.000000	0.068145
222.000000	0.069260
221.000000	0.070223
220.000000	0.071364
219.000000	0.072452
218.000000	0.073713
217.000000	0.075091
216.000000	0.076597
215.000000	0.078235
214.000000	0.080228
213.000000	0.082452
212.000000	0.084718
211.000000	0.087920
210.000000	0.091336
209.000000	0.094580
208.000000	0.098918
207.000000	0.103808
206.000000	0.109285
205.000000	0.115353
204.000000	0.122504
203.000000	0.130162
202.000000	0.138940
201.000000	0.149134
200.000000	0.161445
