PE UV       SUBTECH     SPECTRUM    ASCII       PEDS        4.00        
   -1
MQ2.Sample.Raw.asc
10/09/03
09:31:13.00
10/09/03
09:31:13.00
Hermanni Kaartokallio

200.000000
1
Lambda 650
650N8121101
PerkinElmer UV WinLab 6.0.2.0723 / 1.61.00 Lambda 650

0
0
2
0
0
UV/VIS
1
1
1
uv/vis/nir detector
0
0
0
0
Fix
 
0
0.24
0
0
0
 
 
 
0
 
0
319.2
0
Front
100
 
 
 
0
0
0
 
0
 
 
 
0
 
 
0
0
0
0
0
 
 
 
 
0
0
#HDR
-1
-1
#GR
nm
A
1.0
0.0
800.000000
-1.000000
601
8
0.162050
0.032772
#DATA
800.000000	0.079219
799.000000	0.079600
798.000000	0.080252
797.000000	0.080666
796.000000	0.081013
795.000000	0.081603
794.000000	0.082120
793.000000	0.082348
792.000000	0.082701
791.000000	0.083324
790.000000	0.083873
789.000000	0.084037
788.000000	0.084666
787.000000	0.085086
786.000000	0.085297
785.000000	0.085750
784.000000	0.086282
783.000000	0.086741
782.000000	0.086981
781.000000	0.087408
780.000000	0.087766
779.000000	0.088005
778.000000	0.088284
777.000000	0.088638
776.000000	0.088940
775.000000	0.089108
774.000000	0.089265
773.000000	0.089591
772.000000	0.089831
771.000000	0.089809
770.000000	0.090065
769.000000	0.090394
768.000000	0.090352
767.000000	0.090358
766.000000	0.090684
765.000000	0.090834
764.000000	0.090782
763.000000	0.090908
762.000000	0.090908
761.000000	0.090990
760.000000	0.090920
759.000000	0.090976
758.000000	0.091071
757.000000	0.090947
756.000000	0.090854
755.000000	0.090996
754.000000	0.091054
753.000000	0.090931
752.000000	0.090972
751.000000	0.091119
750.000000	0.091035
749.000000	0.090974
748.000000	0.091096
747.000000	0.091159
746.000000	0.091015
745.000000	0.090945
744.000000	0.090968
743.000000	0.090829
742.000000	0.090620
741.000000	0.090384
740.000000	0.089999
739.000000	0.089275
738.000000	0.088374
737.000000	0.087425
736.000000	0.086108
735.000000	0.084354
734.000000	0.082302
733.000000	0.080112
732.000000	0.077510
731.000000	0.074849
730.000000	0.072387
729.000000	0.069957
728.000000	0.067708
727.000000	0.065691
726.000000	0.064013
725.000000	0.062578
724.000000	0.061153
723.000000	0.059853
722.000000	0.058657
721.000000	0.057356
720.000000	0.056063
719.000000	0.055074
718.000000	0.053962
717.000000	0.052815
716.000000	0.051768
715.000000	0.050790
714.000000	0.049772
713.000000	0.048743
712.000000	0.047951
711.000000	0.047262
710.000000	0.046479
709.000000	0.045768
708.000000	0.045194
707.000000	0.044693
706.000000	0.044101
705.000000	0.043608
704.000000	0.043176
703.000000	0.042657
702.000000	0.042213
701.000000	0.041986
700.000000	0.041688
699.000000	0.041277
698.000000	0.040953
697.000000	0.040699
696.000000	0.040407
695.000000	0.040155
694.000000	0.040056
693.000000	0.039955
692.000000	0.039766
691.000000	0.039559
690.000000	0.039518
689.000000	0.039452
688.000000	0.039380
687.000000	0.039438
686.000000	0.039482
685.000000	0.039466
684.000000	0.039515
683.000000	0.039607
682.000000	0.039588
681.000000	0.039592
680.000000	0.039703
679.000000	0.039825
678.000000	0.039864
677.000000	0.039860
676.000000	0.039898
675.000000	0.039935
674.000000	0.039956
673.000000	0.040035
672.000000	0.040116
671.000000	0.040152
670.000000	0.040112
669.000000	0.040140
668.000000	0.040233
667.000000	0.040190
666.000000	0.040114
665.000000	0.040180
664.000000	0.040046
663.000000	0.039933
662.000000	0.040019
661.000000	0.039951
660.000000	0.039856
659.000000	0.039709
658.000000	0.039571
657.000000	0.039446
656.000000	0.039204
655.000000	0.039061
654.000000	0.038958
653.000000	0.038786
652.000000	0.038580
651.000000	0.038525
650.000000	0.038524
649.000000	0.038399
648.000000	0.038252
647.000000	0.038273
646.000000	0.038168
645.000000	0.038047
644.000000	0.038016
643.000000	0.037988
642.000000	0.037817
641.000000	0.037684
640.000000	0.037670
639.000000	0.037653
638.000000	0.037511
637.000000	0.037489
636.000000	0.037393
635.000000	0.037303
634.000000	0.037040
633.000000	0.037059
632.000000	0.037119
631.000000	0.037003
630.000000	0.036882
629.000000	0.036860
628.000000	0.036695
627.000000	0.036581
626.000000	0.036574
625.000000	0.036685
624.000000	0.036547
623.000000	0.036485
622.000000	0.036390
621.000000	0.036495
620.000000	0.036449
619.000000	0.036412
618.000000	0.036418
617.000000	0.036433
616.000000	0.036256
615.000000	0.036289
614.000000	0.036371
613.000000	0.036337
612.000000	0.036301
611.000000	0.036307
610.000000	0.036360
609.000000	0.036306
608.000000	0.036276
607.000000	0.036281
606.000000	0.036354
605.000000	0.036221
604.000000	0.036211
603.000000	0.036196
602.000000	0.035999
601.000000	0.035680
600.000000	0.035581
599.000000	0.035384
598.000000	0.035015
597.000000	0.034686
596.000000	0.034556
595.000000	0.034359
594.000000	0.034094
593.000000	0.034083
592.000000	0.033930
591.000000	0.033705
590.000000	0.033611
589.000000	0.033599
588.000000	0.033526
587.000000	0.033565
586.000000	0.033313
585.000000	0.033337
584.000000	0.033191
583.000000	0.033106
582.000000	0.033110
581.000000	0.033186
580.000000	0.033020
579.000000	0.032888
578.000000	0.033011
577.000000	0.032960
576.000000	0.032892
575.000000	0.032936
574.000000	0.032977
573.000000	0.032814
572.000000	0.032772
571.000000	0.032910
570.000000	0.032851
569.000000	0.032842
568.000000	0.032784
567.000000	0.032821
566.000000	0.032846
565.000000	0.032805
564.000000	0.032845
563.000000	0.032943
562.000000	0.032958
561.000000	0.032892
560.000000	0.032921
559.000000	0.033039
558.000000	0.032986
557.000000	0.033160
556.000000	0.033237
555.000000	0.033193
554.000000	0.033203
553.000000	0.033316
552.000000	0.033339
551.000000	0.033289
550.000000	0.033356
549.000000	0.033379
548.000000	0.033376
547.000000	0.033462
546.000000	0.033594
545.000000	0.033594
544.000000	0.033566
543.000000	0.033676
542.000000	0.033760
541.000000	0.033781
540.000000	0.033745
539.000000	0.033860
538.000000	0.033858
537.000000	0.033817
536.000000	0.033838
535.000000	0.034015
534.000000	0.034018
533.000000	0.033985
532.000000	0.034069
531.000000	0.034126
530.000000	0.034087
529.000000	0.034169
528.000000	0.034240
527.000000	0.034211
526.000000	0.034175
525.000000	0.034205
524.000000	0.034208
523.000000	0.034285
522.000000	0.034331
521.000000	0.034331
520.000000	0.034412
519.000000	0.034406
518.000000	0.034372
517.000000	0.034455
516.000000	0.034503
515.000000	0.034456
514.000000	0.034483
513.000000	0.034547
512.000000	0.034463
511.000000	0.034467
510.000000	0.034541
509.000000	0.034514
508.000000	0.034408
507.000000	0.034350
506.000000	0.034437
505.000000	0.034452
504.000000	0.034402
503.000000	0.034480
502.000000	0.034546
501.000000	0.034444
500.000000	0.034374
499.000000	0.034509
498.000000	0.034640
497.000000	0.034576
496.000000	0.034548
495.000000	0.034609
494.000000	0.034564
493.000000	0.034553
492.000000	0.034650
491.000000	0.034695
490.000000	0.034634
489.000000	0.034596
488.000000	0.034624
487.000000	0.034634
486.000000	0.034590
485.000000	0.034558
484.000000	0.034617
483.000000	0.034545
482.000000	0.034434
481.000000	0.034482
480.000000	0.034522
479.000000	0.034448
478.000000	0.034417
477.000000	0.034428
476.000000	0.034434
475.000000	0.034423
474.000000	0.034505
473.000000	0.034536
472.000000	0.034494
471.000000	0.034387
470.000000	0.034471
469.000000	0.034572
468.000000	0.034607
467.000000	0.034657
466.000000	0.034740
465.000000	0.034693
464.000000	0.034639
463.000000	0.034705
462.000000	0.034853
461.000000	0.034829
460.000000	0.034798
459.000000	0.034800
458.000000	0.034850
457.000000	0.034837
456.000000	0.034940
455.000000	0.035033
454.000000	0.035071
453.000000	0.034987
452.000000	0.035092
451.000000	0.035220
450.000000	0.035143
449.000000	0.035185
448.000000	0.035305
447.000000	0.035283
446.000000	0.035263
445.000000	0.035248
444.000000	0.035393
443.000000	0.035420
442.000000	0.035377
441.000000	0.035448
440.000000	0.035504
439.000000	0.035532
438.000000	0.035528
437.000000	0.035634
436.000000	0.035711
435.000000	0.035626
434.000000	0.035694
433.000000	0.035804
432.000000	0.035797
431.000000	0.035860
430.000000	0.035933
429.000000	0.035918
428.000000	0.035894
427.000000	0.035977
426.000000	0.036152
425.000000	0.036180
424.000000	0.036159
423.000000	0.036163
422.000000	0.036310
421.000000	0.036296
420.000000	0.036295
419.000000	0.036401
418.000000	0.036535
417.000000	0.036384
416.000000	0.036492
415.000000	0.036670
414.000000	0.036590
413.000000	0.036625
412.000000	0.036806
411.000000	0.036748
410.000000	0.036716
409.000000	0.036836
408.000000	0.036956
407.000000	0.036954
406.000000	0.036873
405.000000	0.036860
404.000000	0.037091
403.000000	0.037026
402.000000	0.037036
401.000000	0.037177
400.000000	0.037335
399.000000	0.037090
398.000000	0.037155
397.000000	0.037264
396.000000	0.037391
395.000000	0.037309
394.000000	0.037341
393.000000	0.037520
392.000000	0.037470
391.000000	0.037416
390.000000	0.037564
389.000000	0.037676
388.000000	0.037513
387.000000	0.037594
386.000000	0.037775
385.000000	0.037744
384.000000	0.037659
383.000000	0.037837
382.000000	0.037896
381.000000	0.037760
380.000000	0.037722
379.000000	0.037893
378.000000	0.037840
377.000000	0.037685
376.000000	0.037815
375.000000	0.037869
374.000000	0.037825
373.000000	0.037861
372.000000	0.038041
371.000000	0.038060
370.000000	0.037946
369.000000	0.038045
368.000000	0.038181
367.000000	0.038133
366.000000	0.038092
365.000000	0.038148
364.000000	0.038278
363.000000	0.038245
362.000000	0.038336
361.000000	0.038413
360.000000	0.038328
359.000000	0.038295
358.000000	0.038462
357.000000	0.038595
356.000000	0.038539
355.000000	0.038556
354.000000	0.038691
353.000000	0.038548
352.000000	0.038580
351.000000	0.038721
350.000000	0.038863
349.000000	0.038883
348.000000	0.038800
347.000000	0.038911
346.000000	0.039085
345.000000	0.039011
344.000000	0.039105
343.000000	0.039257
342.000000	0.039274
341.000000	0.039183
340.000000	0.039307
339.000000	0.039505
338.000000	0.039490
337.000000	0.039424
336.000000	0.039607
335.000000	0.039664
334.000000	0.039658
333.000000	0.039851
332.000000	0.039948
331.000000	0.039996
330.000000	0.039943
329.000000	0.040010
328.000000	0.040228
327.000000	0.040240
326.000000	0.040174
325.000000	0.040384
324.000000	0.040417
323.000000	0.040371
322.000000	0.040517
321.000000	0.040757
320.000000	0.040740
319.000000	0.040729
318.000000	0.040666
317.000000	0.040534
316.000000	0.040675
315.000000	0.040881
314.000000	0.040913
313.000000	0.040975
312.000000	0.041174
311.000000	0.041276
310.000000	0.041301
309.000000	0.041457
308.000000	0.041642
307.000000	0.041679
306.000000	0.041752
305.000000	0.041864
304.000000	0.041967
303.000000	0.042088
302.000000	0.042207
301.000000	0.042374
300.000000	0.042447
299.000000	0.042474
298.000000	0.042650
297.000000	0.042849
296.000000	0.042920
295.000000	0.043054
294.000000	0.043275
293.000000	0.043348
292.000000	0.043362
291.000000	0.043577
290.000000	0.043905
289.000000	0.044064
288.000000	0.044171
287.000000	0.044366
286.000000	0.044580
285.000000	0.044728
284.000000	0.044878
283.000000	0.045166
282.000000	0.045325
281.000000	0.045344
280.000000	0.045515
279.000000	0.045817
278.000000	0.045940
277.000000	0.046002
276.000000	0.046190
275.000000	0.046316
274.000000	0.046419
273.000000	0.046646
272.000000	0.046912
271.000000	0.047052
270.000000	0.047128
269.000000	0.047323
268.000000	0.047461
267.000000	0.047606
266.000000	0.047785
265.000000	0.048027
264.000000	0.048290
263.000000	0.048310
262.000000	0.048538
261.000000	0.048873
260.000000	0.049092
259.000000	0.049325
258.000000	0.049692
257.000000	0.049854
256.000000	0.050056
255.000000	0.050395
254.000000	0.050751
253.000000	0.050992
252.000000	0.051254
251.000000	0.051579
250.000000	0.052016
249.000000	0.052455
248.000000	0.052760
247.000000	0.053227
246.000000	0.053662
245.000000	0.053948
244.000000	0.054530
243.000000	0.055039
242.000000	0.055491
241.000000	0.056065
240.000000	0.056703
239.000000	0.057263
238.000000	0.057820
237.000000	0.058350
236.000000	0.059044
235.000000	0.059554
234.000000	0.060316
233.000000	0.060917
232.000000	0.061742
231.000000	0.062431
230.000000	0.063079
229.000000	0.063884
228.000000	0.064544
227.000000	0.065145
226.000000	0.066056
225.000000	0.066946
224.000000	0.067881
223.000000	0.068502
222.000000	0.069479
221.000000	0.070475
220.000000	0.071634
219.000000	0.072677
218.000000	0.074018
217.000000	0.075488
216.000000	0.076957
215.000000	0.078587
214.000000	0.080595
213.000000	0.082797
212.000000	0.085195
211.000000	0.088196
210.000000	0.091433
209.000000	0.095071
208.000000	0.099251
207.000000	0.104137
206.000000	0.109737
205.000000	0.115790
204.000000	0.122859
203.000000	0.130757
202.000000	0.139538
201.000000	0.149707
200.000000	0.162050
