PE UV       SUBTECH     SPECTRUM    ASCII       PEDS        4.00        
   -1
MQ3.Sample.Raw.asc
10/09/03
12:52:38.00
10/09/03
12:52:38.00
Hermanni Kaartokallio

200.000000
1
Lambda 650
650N8121101
PerkinElmer UV WinLab 6.0.2.0723 / 1.61.00 Lambda 650

0
0
2
0
0
UV/VIS
1
1
1
uv/vis/nir detector
0
0
0
0
Fix
 
0
0.24
0
0
0
 
 
 
0
 
0
319.2
0
Front
100
 
 
 
0
0
0
 
0
 
 
 
0
 
 
0
0
0
0
0
 
 
 
 
0
0
#HDR
-1
-1
#GR
nm
A
1.0
0.0
800.000000
-1.000000
601
8
0.155049
0.032515
#DATA
800.000000	0.078468
799.000000	0.078898
798.000000	0.079603
797.000000	0.079987
796.000000	0.080200
795.000000	0.080658
794.000000	0.081063
793.000000	0.081497
792.000000	0.081963
791.000000	0.082532
790.000000	0.082986
789.000000	0.083311
788.000000	0.083758
787.000000	0.084255
786.000000	0.084658
785.000000	0.085114
784.000000	0.085410
783.000000	0.085910
782.000000	0.086236
781.000000	0.086613
780.000000	0.086969
779.000000	0.087302
778.000000	0.087574
777.000000	0.087938
776.000000	0.088168
775.000000	0.088513
774.000000	0.088548
773.000000	0.088811
772.000000	0.089049
771.000000	0.089149
770.000000	0.089226
769.000000	0.089523
768.000000	0.089588
767.000000	0.089725
766.000000	0.089824
765.000000	0.090030
764.000000	0.090045
763.000000	0.090131
762.000000	0.090029
761.000000	0.090180
760.000000	0.090207
759.000000	0.090162
758.000000	0.090111
757.000000	0.090030
756.000000	0.089974
755.000000	0.090100
754.000000	0.090056
753.000000	0.090005
752.000000	0.089977
751.000000	0.090043
750.000000	0.090077
749.000000	0.090149
748.000000	0.090105
747.000000	0.090119
746.000000	0.090037
745.000000	0.089945
744.000000	0.090091
743.000000	0.090094
742.000000	0.089964
741.000000	0.089662
740.000000	0.089227
739.000000	0.088530
738.000000	0.087733
737.000000	0.086698
736.000000	0.085293
735.000000	0.083483
734.000000	0.081497
733.000000	0.079349
732.000000	0.076970
731.000000	0.074389
730.000000	0.071779
729.000000	0.069223
728.000000	0.067016
727.000000	0.065042
726.000000	0.063340
725.000000	0.061835
724.000000	0.060430
723.000000	0.059107
722.000000	0.057938
721.000000	0.056752
720.000000	0.055526
719.000000	0.054438
718.000000	0.053170
717.000000	0.051954
716.000000	0.050915
715.000000	0.049858
714.000000	0.048880
713.000000	0.047948
712.000000	0.047078
711.000000	0.046340
710.000000	0.045677
709.000000	0.044994
708.000000	0.044385
707.000000	0.043895
706.000000	0.043372
705.000000	0.042858
704.000000	0.042370
703.000000	0.041911
702.000000	0.041544
701.000000	0.041242
700.000000	0.040935
699.000000	0.040612
698.000000	0.040260
697.000000	0.040043
696.000000	0.039840
695.000000	0.039573
694.000000	0.039396
693.000000	0.039296
692.000000	0.039130
691.000000	0.038980
690.000000	0.038897
689.000000	0.038779
688.000000	0.038722
687.000000	0.038799
686.000000	0.038807
685.000000	0.038789
684.000000	0.038842
683.000000	0.038878
682.000000	0.038879
681.000000	0.038935
680.000000	0.038989
679.000000	0.039034
678.000000	0.039119
677.000000	0.039118
676.000000	0.039095
675.000000	0.039178
674.000000	0.039286
673.000000	0.039329
672.000000	0.039345
671.000000	0.039372
670.000000	0.039398
669.000000	0.039392
668.000000	0.039384
667.000000	0.039370
666.000000	0.039387
665.000000	0.039439
664.000000	0.039368
663.000000	0.039361
662.000000	0.039341
661.000000	0.039221
660.000000	0.039134
659.000000	0.039044
658.000000	0.038935
657.000000	0.038818
656.000000	0.038611
655.000000	0.038440
654.000000	0.038279
653.000000	0.038178
652.000000	0.038080
651.000000	0.038012
650.000000	0.037912
649.000000	0.037830
648.000000	0.037690
647.000000	0.037638
646.000000	0.037582
645.000000	0.037516
644.000000	0.037430
643.000000	0.037355
642.000000	0.037320
641.000000	0.037242
640.000000	0.037208
639.000000	0.037165
638.000000	0.037069
637.000000	0.037024
636.000000	0.036920
635.000000	0.036842
634.000000	0.036683
633.000000	0.036707
632.000000	0.036636
631.000000	0.036591
630.000000	0.036515
629.000000	0.036406
628.000000	0.036254
627.000000	0.036224
626.000000	0.036215
625.000000	0.036251
624.000000	0.036160
623.000000	0.036144
622.000000	0.036083
621.000000	0.036135
620.000000	0.036092
619.000000	0.036071
618.000000	0.036096
617.000000	0.036018
616.000000	0.035943
615.000000	0.036042
614.000000	0.036003
613.000000	0.036019
612.000000	0.035988
611.000000	0.035934
610.000000	0.035962
609.000000	0.035989
608.000000	0.035979
607.000000	0.035871
606.000000	0.035906
605.000000	0.035928
604.000000	0.035819
603.000000	0.035821
602.000000	0.035570
601.000000	0.035331
600.000000	0.035154
599.000000	0.034849
598.000000	0.034621
597.000000	0.034303
596.000000	0.034234
595.000000	0.033925
594.000000	0.033784
593.000000	0.033745
592.000000	0.033513
591.000000	0.033370
590.000000	0.033362
589.000000	0.033234
588.000000	0.033106
587.000000	0.033061
586.000000	0.033056
585.000000	0.032981
584.000000	0.032959
583.000000	0.032837
582.000000	0.032796
581.000000	0.032816
580.000000	0.032774
579.000000	0.032758
578.000000	0.032766
577.000000	0.032631
576.000000	0.032548
575.000000	0.032632
574.000000	0.032605
573.000000	0.032515
572.000000	0.032594
571.000000	0.032637
570.000000	0.032527
569.000000	0.032555
568.000000	0.032587
567.000000	0.032545
566.000000	0.032539
565.000000	0.032609
564.000000	0.032723
563.000000	0.032700
562.000000	0.032698
561.000000	0.032715
560.000000	0.032740
559.000000	0.032912
558.000000	0.032838
557.000000	0.032916
556.000000	0.033011
555.000000	0.033081
554.000000	0.033165
553.000000	0.033184
552.000000	0.033141
551.000000	0.033178
550.000000	0.033266
549.000000	0.033222
548.000000	0.033319
547.000000	0.033441
546.000000	0.033523
545.000000	0.033455
544.000000	0.033529
543.000000	0.033595
542.000000	0.033613
541.000000	0.033672
540.000000	0.033741
539.000000	0.033791
538.000000	0.033789
537.000000	0.033813
536.000000	0.033875
535.000000	0.033922
534.000000	0.033915
533.000000	0.033912
532.000000	0.034009
531.000000	0.034007
530.000000	0.034045
529.000000	0.034171
528.000000	0.034125
527.000000	0.034068
526.000000	0.034062
525.000000	0.034118
524.000000	0.034152
523.000000	0.034206
522.000000	0.034268
521.000000	0.034304
520.000000	0.034256
519.000000	0.034256
518.000000	0.034310
517.000000	0.034374
516.000000	0.034384
515.000000	0.034381
514.000000	0.034379
513.000000	0.034364
512.000000	0.034319
511.000000	0.034381
510.000000	0.034393
509.000000	0.034297
508.000000	0.034197
507.000000	0.034191
506.000000	0.034268
505.000000	0.034338
504.000000	0.034363
503.000000	0.034322
502.000000	0.034292
501.000000	0.034312
500.000000	0.034397
499.000000	0.034390
498.000000	0.034335
497.000000	0.034326
496.000000	0.034362
495.000000	0.034373
494.000000	0.034362
493.000000	0.034410
492.000000	0.034430
491.000000	0.034357
490.000000	0.034349
489.000000	0.034361
488.000000	0.034345
487.000000	0.034300
486.000000	0.034274
485.000000	0.034267
484.000000	0.034243
483.000000	0.034225
482.000000	0.034238
481.000000	0.034207
480.000000	0.034136
479.000000	0.034133
478.000000	0.034149
477.000000	0.034093
476.000000	0.034074
475.000000	0.034127
474.000000	0.034154
473.000000	0.034142
472.000000	0.034128
471.000000	0.034116
470.000000	0.034164
469.000000	0.034114
468.000000	0.034156
467.000000	0.034321
466.000000	0.034275
465.000000	0.034249
464.000000	0.034348
463.000000	0.034347
462.000000	0.034351
461.000000	0.034366
460.000000	0.034452
459.000000	0.034420
458.000000	0.034430
457.000000	0.034422
456.000000	0.034550
455.000000	0.034622
454.000000	0.034592
453.000000	0.034607
452.000000	0.034745
451.000000	0.034681
450.000000	0.034672
449.000000	0.034793
448.000000	0.034874
447.000000	0.034788
446.000000	0.034815
445.000000	0.034884
444.000000	0.034918
443.000000	0.034931
442.000000	0.034967
441.000000	0.034968
440.000000	0.035019
439.000000	0.035048
438.000000	0.035052
437.000000	0.035130
436.000000	0.035174
435.000000	0.035131
434.000000	0.035215
433.000000	0.035243
432.000000	0.035213
431.000000	0.035352
430.000000	0.035389
429.000000	0.035351
428.000000	0.035439
427.000000	0.035506
426.000000	0.035552
425.000000	0.035516
424.000000	0.035609
423.000000	0.035593
422.000000	0.035708
421.000000	0.035735
420.000000	0.035780
419.000000	0.035768
418.000000	0.035801
417.000000	0.035741
416.000000	0.035945
415.000000	0.036021
414.000000	0.035910
413.000000	0.035999
412.000000	0.036155
411.000000	0.036014
410.000000	0.036110
409.000000	0.036232
408.000000	0.036277
407.000000	0.036181
406.000000	0.036139
405.000000	0.036221
404.000000	0.036396
403.000000	0.036240
402.000000	0.036355
401.000000	0.036476
400.000000	0.036421
399.000000	0.036451
398.000000	0.036595
397.000000	0.036544
396.000000	0.036514
395.000000	0.036572
394.000000	0.036649
393.000000	0.036785
392.000000	0.036636
391.000000	0.036637
390.000000	0.036725
389.000000	0.036687
388.000000	0.036711
387.000000	0.036819
386.000000	0.036926
385.000000	0.036852
384.000000	0.036835
383.000000	0.036986
382.000000	0.036962
381.000000	0.036866
380.000000	0.036969
379.000000	0.037026
378.000000	0.036795
377.000000	0.036715
376.000000	0.036901
375.000000	0.036953
374.000000	0.036905
373.000000	0.036944
372.000000	0.037081
371.000000	0.037061
370.000000	0.037110
369.000000	0.037156
368.000000	0.037151
367.000000	0.037138
366.000000	0.037260
365.000000	0.037310
364.000000	0.037401
363.000000	0.037315
362.000000	0.037438
361.000000	0.037440
360.000000	0.037317
359.000000	0.037425
358.000000	0.037598
357.000000	0.037606
356.000000	0.037579
355.000000	0.037678
354.000000	0.037726
353.000000	0.037604
352.000000	0.037709
351.000000	0.037823
350.000000	0.037852
349.000000	0.037898
348.000000	0.037941
347.000000	0.038074
346.000000	0.038133
345.000000	0.038059
344.000000	0.038190
343.000000	0.038323
342.000000	0.038297
341.000000	0.038328
340.000000	0.038548
339.000000	0.038525
338.000000	0.038507
337.000000	0.038626
336.000000	0.038687
335.000000	0.038690
334.000000	0.038777
333.000000	0.038930
332.000000	0.038980
331.000000	0.038939
330.000000	0.038961
329.000000	0.039129
328.000000	0.039247
327.000000	0.039284
326.000000	0.039324
325.000000	0.039430
324.000000	0.039372
323.000000	0.039379
322.000000	0.039511
321.000000	0.039648
320.000000	0.039635
319.000000	0.039725
318.000000	0.039616
317.000000	0.039375
316.000000	0.039586
315.000000	0.039755
314.000000	0.039723
313.000000	0.039902
312.000000	0.040076
311.000000	0.040042
310.000000	0.040187
309.000000	0.040355
308.000000	0.040408
307.000000	0.040423
306.000000	0.040619
305.000000	0.040802
304.000000	0.040883
303.000000	0.040970
302.000000	0.041103
301.000000	0.041202
300.000000	0.041251
299.000000	0.041335
298.000000	0.041503
297.000000	0.041604
296.000000	0.041654
295.000000	0.041794
294.000000	0.041954
293.000000	0.041974
292.000000	0.042116
291.000000	0.042355
290.000000	0.042557
289.000000	0.042632
288.000000	0.042732
287.000000	0.042941
286.000000	0.043153
285.000000	0.043252
284.000000	0.043360
283.000000	0.043510
282.000000	0.043613
281.000000	0.043786
280.000000	0.044028
279.000000	0.044157
278.000000	0.044204
277.000000	0.044411
276.000000	0.044655
275.000000	0.044669
274.000000	0.044845
273.000000	0.045112
272.000000	0.045217
271.000000	0.045270
270.000000	0.045464
269.000000	0.045739
268.000000	0.045865
267.000000	0.045990
266.000000	0.046224
265.000000	0.046480
264.000000	0.046596
263.000000	0.046702
262.000000	0.047044
261.000000	0.047344
260.000000	0.047419
259.000000	0.047648
258.000000	0.047962
257.000000	0.048177
256.000000	0.048257
255.000000	0.048621
254.000000	0.048930
253.000000	0.049116
252.000000	0.049432
251.000000	0.049700
250.000000	0.050059
249.000000	0.050450
248.000000	0.050707
247.000000	0.051182
246.000000	0.051498
245.000000	0.051754
244.000000	0.052245
243.000000	0.052705
242.000000	0.053087
241.000000	0.053509
240.000000	0.054002
239.000000	0.054444
238.000000	0.054996
237.000000	0.055531
236.000000	0.056141
235.000000	0.056579
234.000000	0.057141
233.000000	0.057753
232.000000	0.058545
231.000000	0.059114
230.000000	0.059730
229.000000	0.060497
228.000000	0.061035
227.000000	0.061671
226.000000	0.062727
225.000000	0.063461
224.000000	0.064284
223.000000	0.064981
222.000000	0.066123
221.000000	0.067024
220.000000	0.068145
219.000000	0.069316
218.000000	0.070635
217.000000	0.071848
216.000000	0.073382
215.000000	0.075058
214.000000	0.077029
213.000000	0.079088
212.000000	0.081336
211.000000	0.084147
210.000000	0.087250
209.000000	0.090475
208.000000	0.094415
207.000000	0.098749
206.000000	0.103908
205.000000	0.109560
204.000000	0.116382
203.000000	0.123799
202.000000	0.132568
201.000000	0.142697
200.000000	0.155049
