PE UV       SUBTECH     SPECTRUM    ASCII       PEDS        4.00        
   -1
MQ5_1CM_CELL.Sample.Raw.asc
10/09/03
13:16:12.00
10/09/03
13:16:12.00
Hermanni Kaartokallio

200.000000
1
Lambda 650
650N8121101
PerkinElmer UV WinLab 6.0.2.0723 / 1.61.00 Lambda 650

0
0
2
0
0
UV/VIS
1
1
1
uv/vis/nir detector
0
0
0
0
Fix
 
0
0.24
0
0
0
 
 
 
0
 
0
319.2
0
Front
100
 
 
 
0
0
0
 
0
 
 
 
0
 
 
0
0
0
0
0
 
 
 
 
0
0
#HDR
-1
-1
#GR
nm
A
1.0
0.0
800.000000
-1.000000
601
8
0.091262
0.030816
#DATA
800.000000	0.040115
799.000000	0.040403
798.000000	0.040620
797.000000	0.040658
796.000000	0.040724
795.000000	0.040918
794.000000	0.040950
793.000000	0.040843
792.000000	0.041060
791.000000	0.041073
790.000000	0.041417
789.000000	0.041361
788.000000	0.041542
787.000000	0.041634
786.000000	0.041453
785.000000	0.041611
784.000000	0.041725
783.000000	0.041770
782.000000	0.041824
781.000000	0.041941
780.000000	0.041991
779.000000	0.042041
778.000000	0.042009
777.000000	0.042089
776.000000	0.042126
775.000000	0.042110
774.000000	0.041988
773.000000	0.042001
772.000000	0.042053
771.000000	0.041970
770.000000	0.042173
769.000000	0.042258
768.000000	0.042042
767.000000	0.041840
766.000000	0.042055
765.000000	0.042072
764.000000	0.042049
763.000000	0.042131
762.000000	0.041891
761.000000	0.041792
760.000000	0.041899
759.000000	0.041912
758.000000	0.041970
757.000000	0.041810
756.000000	0.041593
755.000000	0.041741
754.000000	0.041758
753.000000	0.041725
752.000000	0.041939
751.000000	0.042037
750.000000	0.041861
749.000000	0.041835
748.000000	0.042000
747.000000	0.042076
746.000000	0.042082
745.000000	0.042135
744.000000	0.042091
743.000000	0.041939
742.000000	0.041966
741.000000	0.042033
740.000000	0.042067
739.000000	0.041781
738.000000	0.041460
737.000000	0.041272
736.000000	0.041067
735.000000	0.040672
734.000000	0.040369
733.000000	0.039968
732.000000	0.039187
731.000000	0.038550
730.000000	0.038200
729.000000	0.037654
728.000000	0.037221
727.000000	0.036748
726.000000	0.036315
725.000000	0.035993
724.000000	0.035827
723.000000	0.035656
722.000000	0.035516
721.000000	0.035125
720.000000	0.034717
719.000000	0.034688
718.000000	0.034493
717.000000	0.034254
716.000000	0.034151
715.000000	0.033890
714.000000	0.033448
713.000000	0.033156
712.000000	0.033102
711.000000	0.033012
710.000000	0.032831
709.000000	0.032583
708.000000	0.032337
707.000000	0.032154
706.000000	0.032008
705.000000	0.031996
704.000000	0.031918
703.000000	0.031635
702.000000	0.031426
701.000000	0.031498
700.000000	0.031440
699.000000	0.031258
698.000000	0.031257
697.000000	0.031178
696.000000	0.030965
695.000000	0.030918
694.000000	0.030981
693.000000	0.031063
692.000000	0.031052
691.000000	0.030914
690.000000	0.030840
689.000000	0.030816
688.000000	0.030956
687.000000	0.031159
686.000000	0.031171
685.000000	0.031081
684.000000	0.031159
683.000000	0.031290
682.000000	0.031289
681.000000	0.031343
680.000000	0.031437
679.000000	0.031547
678.000000	0.031582
677.000000	0.031675
676.000000	0.031744
675.000000	0.031733
674.000000	0.031715
673.000000	0.031839
672.000000	0.031922
671.000000	0.031880
670.000000	0.031949
669.000000	0.031994
668.000000	0.031957
667.000000	0.031886
666.000000	0.031868
665.000000	0.031898
664.000000	0.031813
663.000000	0.031726
662.000000	0.031737
661.000000	0.031672
660.000000	0.031593
659.000000	0.031561
658.000000	0.031615
657.000000	0.031547
656.000000	0.031438
655.000000	0.031461
654.000000	0.031454
653.000000	0.031423
652.000000	0.031381
651.000000	0.031482
650.000000	0.031522
649.000000	0.031388
648.000000	0.031388
647.000000	0.031414
646.000000	0.031439
645.000000	0.031439
644.000000	0.031517
643.000000	0.031564
642.000000	0.031451
641.000000	0.031435
640.000000	0.031645
639.000000	0.031736
638.000000	0.031592
637.000000	0.031644
636.000000	0.031650
635.000000	0.031636
634.000000	0.031579
633.000000	0.031737
632.000000	0.031772
631.000000	0.031711
630.000000	0.031760
629.000000	0.031768
628.000000	0.031735
627.000000	0.031673
626.000000	0.031761
625.000000	0.031865
624.000000	0.031844
623.000000	0.031830
622.000000	0.031918
621.000000	0.032025
620.000000	0.032037
619.000000	0.031985
618.000000	0.032142
617.000000	0.032179
616.000000	0.032060
615.000000	0.032188
614.000000	0.032305
613.000000	0.032292
612.000000	0.032217
611.000000	0.032300
610.000000	0.032448
609.000000	0.032413
608.000000	0.032392
607.000000	0.032405
606.000000	0.032466
605.000000	0.032461
604.000000	0.032455
603.000000	0.032620
602.000000	0.032418
601.000000	0.032248
600.000000	0.032516
599.000000	0.032339
598.000000	0.032191
597.000000	0.032157
596.000000	0.032164
595.000000	0.032040
594.000000	0.031985
593.000000	0.032058
592.000000	0.031890
591.000000	0.031796
590.000000	0.031724
589.000000	0.031759
588.000000	0.031625
587.000000	0.031563
586.000000	0.031541
585.000000	0.031644
584.000000	0.031532
583.000000	0.031389
582.000000	0.031444
581.000000	0.031481
580.000000	0.031276
579.000000	0.031280
578.000000	0.031409
577.000000	0.031337
576.000000	0.031205
575.000000	0.031304
574.000000	0.031335
573.000000	0.031217
572.000000	0.031226
571.000000	0.031358
570.000000	0.031286
569.000000	0.031246
568.000000	0.031240
567.000000	0.031351
566.000000	0.031377
565.000000	0.031324
564.000000	0.031445
563.000000	0.031514
562.000000	0.031494
561.000000	0.031433
560.000000	0.031619
559.000000	0.031691
558.000000	0.031584
557.000000	0.031728
556.000000	0.031890
555.000000	0.031855
554.000000	0.031911
553.000000	0.032045
552.000000	0.032025
551.000000	0.031959
550.000000	0.032037
549.000000	0.032051
548.000000	0.032059
547.000000	0.032145
546.000000	0.032315
545.000000	0.032252
544.000000	0.032227
543.000000	0.032340
542.000000	0.032446
541.000000	0.032465
540.000000	0.032442
539.000000	0.032537
538.000000	0.032549
537.000000	0.032502
536.000000	0.032568
535.000000	0.032722
534.000000	0.032686
533.000000	0.032632
532.000000	0.032740
531.000000	0.032814
530.000000	0.032774
529.000000	0.032830
528.000000	0.032874
527.000000	0.032879
526.000000	0.032825
525.000000	0.032839
524.000000	0.032943
523.000000	0.032961
522.000000	0.032878
521.000000	0.032906
520.000000	0.032952
519.000000	0.032932
518.000000	0.032899
517.000000	0.032956
516.000000	0.032943
515.000000	0.032865
514.000000	0.032840
513.000000	0.032904
512.000000	0.032889
511.000000	0.032827
510.000000	0.032780
509.000000	0.032732
508.000000	0.032647
507.000000	0.032602
506.000000	0.032713
505.000000	0.032704
504.000000	0.032587
503.000000	0.032570
502.000000	0.032588
501.000000	0.032503
500.000000	0.032387
499.000000	0.032385
498.000000	0.032386
497.000000	0.032246
496.000000	0.032197
495.000000	0.032242
494.000000	0.032166
493.000000	0.032053
492.000000	0.032036
491.000000	0.032022
490.000000	0.031936
489.000000	0.031889
488.000000	0.031929
487.000000	0.031920
486.000000	0.031819
485.000000	0.031787
484.000000	0.031840
483.000000	0.031858
482.000000	0.031809
481.000000	0.031792
480.000000	0.031791
479.000000	0.031730
478.000000	0.031710
477.000000	0.031793
476.000000	0.031852
475.000000	0.031764
474.000000	0.031813
473.000000	0.031894
472.000000	0.031856
471.000000	0.031788
470.000000	0.031921
469.000000	0.031957
468.000000	0.031972
467.000000	0.032055
466.000000	0.032112
465.000000	0.032179
464.000000	0.032209
463.000000	0.032219
462.000000	0.032318
461.000000	0.032285
460.000000	0.032309
459.000000	0.032368
458.000000	0.032388
457.000000	0.032403
456.000000	0.032461
455.000000	0.032595
454.000000	0.032619
453.000000	0.032582
452.000000	0.032695
451.000000	0.032778
450.000000	0.032697
449.000000	0.032740
448.000000	0.032873
447.000000	0.032909
446.000000	0.032988
445.000000	0.032953
444.000000	0.033078
443.000000	0.033090
442.000000	0.033035
441.000000	0.033068
440.000000	0.033231
439.000000	0.033149
438.000000	0.033149
437.000000	0.033240
436.000000	0.033368
435.000000	0.033336
434.000000	0.033397
433.000000	0.033428
432.000000	0.033408
431.000000	0.033469
430.000000	0.033593
429.000000	0.033709
428.000000	0.033444
427.000000	0.033543
426.000000	0.033692
425.000000	0.033741
424.000000	0.033635
423.000000	0.033730
422.000000	0.033836
421.000000	0.033866
420.000000	0.033769
419.000000	0.033809
418.000000	0.033898
417.000000	0.033819
416.000000	0.033911
415.000000	0.034040
414.000000	0.033917
413.000000	0.033875
412.000000	0.033963
411.000000	0.033943
410.000000	0.033951
409.000000	0.033963
408.000000	0.034041
407.000000	0.033998
406.000000	0.033908
405.000000	0.033849
404.000000	0.034049
403.000000	0.033975
402.000000	0.033936
401.000000	0.033896
400.000000	0.034005
399.000000	0.033855
398.000000	0.033972
397.000000	0.033927
396.000000	0.034071
395.000000	0.033882
394.000000	0.033894
393.000000	0.034070
392.000000	0.033982
391.000000	0.033849
390.000000	0.033877
389.000000	0.033987
388.000000	0.033887
387.000000	0.033951
386.000000	0.034071
385.000000	0.033994
384.000000	0.033903
383.000000	0.033945
382.000000	0.033981
381.000000	0.033983
380.000000	0.033947
379.000000	0.034008
378.000000	0.034013
377.000000	0.033861
376.000000	0.033967
375.000000	0.033985
374.000000	0.033951
373.000000	0.033896
372.000000	0.034100
371.000000	0.034168
370.000000	0.034053
369.000000	0.034089
368.000000	0.034157
367.000000	0.034218
366.000000	0.034193
365.000000	0.034246
364.000000	0.034326
363.000000	0.034370
362.000000	0.034341
361.000000	0.034328
360.000000	0.034313
359.000000	0.034337
358.000000	0.034460
357.000000	0.034542
356.000000	0.034564
355.000000	0.034603
354.000000	0.034708
353.000000	0.034683
352.000000	0.034695
351.000000	0.034756
350.000000	0.034859
349.000000	0.034827
348.000000	0.034870
347.000000	0.034983
346.000000	0.035120
345.000000	0.035113
344.000000	0.035120
343.000000	0.035199
342.000000	0.035260
341.000000	0.035276
340.000000	0.035389
339.000000	0.035498
338.000000	0.035489
337.000000	0.035457
336.000000	0.035514
335.000000	0.035651
334.000000	0.035673
333.000000	0.035760
332.000000	0.035772
331.000000	0.035760
330.000000	0.035780
329.000000	0.035819
328.000000	0.036002
327.000000	0.035990
326.000000	0.035966
325.000000	0.036123
324.000000	0.036136
323.000000	0.036091
322.000000	0.036162
321.000000	0.036267
320.000000	0.036253
319.000000	0.036264
318.000000	0.036139
317.000000	0.035911
316.000000	0.035923
315.000000	0.036080
314.000000	0.036062
313.000000	0.036052
312.000000	0.036176
311.000000	0.036241
310.000000	0.036377
309.000000	0.036478
308.000000	0.036497
307.000000	0.036581
306.000000	0.036659
305.000000	0.036702
304.000000	0.036808
303.000000	0.036917
302.000000	0.036959
301.000000	0.037052
300.000000	0.037099
299.000000	0.037134
298.000000	0.037265
297.000000	0.037347
296.000000	0.037374
295.000000	0.037452
294.000000	0.037581
293.000000	0.037683
292.000000	0.037787
291.000000	0.037847
290.000000	0.037986
289.000000	0.038153
288.000000	0.038232
287.000000	0.038338
286.000000	0.038518
285.000000	0.038660
284.000000	0.038692
283.000000	0.038805
282.000000	0.038912
281.000000	0.039008
280.000000	0.039077
279.000000	0.039210
278.000000	0.039359
277.000000	0.039492
276.000000	0.039573
275.000000	0.039588
274.000000	0.039766
273.000000	0.039890
272.000000	0.039936
271.000000	0.039986
270.000000	0.040091
269.000000	0.040191
268.000000	0.040382
267.000000	0.040503
266.000000	0.040565
265.000000	0.040657
264.000000	0.040850
263.000000	0.040910
262.000000	0.041007
261.000000	0.041227
260.000000	0.041250
259.000000	0.041389
258.000000	0.041502
257.000000	0.041582
256.000000	0.041683
255.000000	0.041905
254.000000	0.041971
253.000000	0.042169
252.000000	0.042330
251.000000	0.042479
250.000000	0.042664
249.000000	0.042936
248.000000	0.043116
247.000000	0.043252
246.000000	0.043531
245.000000	0.043803
244.000000	0.044092
243.000000	0.044228
242.000000	0.044480
241.000000	0.044822
240.000000	0.045030
239.000000	0.045344
238.000000	0.045791
237.000000	0.046221
236.000000	0.046435
235.000000	0.046776
234.000000	0.047264
233.000000	0.047682
232.000000	0.048199
231.000000	0.048645
230.000000	0.049007
229.000000	0.049399
228.000000	0.049668
227.000000	0.050197
226.000000	0.050793
225.000000	0.051137
224.000000	0.051737
223.000000	0.052136
222.000000	0.052659
221.000000	0.053109
220.000000	0.053826
219.000000	0.054340
218.000000	0.054890
217.000000	0.055736
216.000000	0.056576
215.000000	0.057522
214.000000	0.058366
213.000000	0.059497
212.000000	0.060674
211.000000	0.062017
210.000000	0.063384
209.000000	0.064986
208.000000	0.066882
207.000000	0.068866
206.000000	0.071131
205.000000	0.073719
204.000000	0.076577
203.000000	0.079462
202.000000	0.083168
201.000000	0.086993
200.000000	0.091262
