PE UV       SUBTECH     SPECTRUM    ASCII       PEDS        4.00        
   -1
MQ6_1CM_CELL.Sample.Raw.asc
10/09/03
13:20:19.00
10/09/03
13:20:19.00
Hermanni Kaartokallio

200.000000
1
Lambda 650
650N8121101
PerkinElmer UV WinLab 6.0.2.0723 / 1.61.00 Lambda 650

0
0
2
0
0
UV/VIS
1
1
1
uv/vis/nir detector
0
0
0
0
Fix
 
0
0.24
0
0
0
 
 
 
0
 
0
319.2
0
Front
100
 
 
 
0
0
0
 
0
 
 
 
0
 
 
0
0
0
0
0
 
 
 
 
0
0
#HDR
-1
-1
#GR
nm
A
1.0
0.0
800.000000
-1.000000
601
8
0.091265
0.030963
#DATA
800.000000	0.040133
799.000000	0.040298
798.000000	0.040709
797.000000	0.040697
796.000000	0.040616
795.000000	0.040801
794.000000	0.040796
793.000000	0.040872
792.000000	0.040972
791.000000	0.041173
790.000000	0.041175
789.000000	0.041263
788.000000	0.041400
787.000000	0.041431
786.000000	0.041500
785.000000	0.041694
784.000000	0.041608
783.000000	0.041622
782.000000	0.041726
781.000000	0.041904
780.000000	0.041955
779.000000	0.042026
778.000000	0.042086
777.000000	0.042091
776.000000	0.042093
775.000000	0.042181
774.000000	0.042183
773.000000	0.042143
772.000000	0.042113
771.000000	0.042052
770.000000	0.042093
769.000000	0.042140
768.000000	0.042072
767.000000	0.042107
766.000000	0.042066
765.000000	0.042087
764.000000	0.042170
763.000000	0.042197
762.000000	0.042024
761.000000	0.041974
760.000000	0.041990
759.000000	0.041984
758.000000	0.041966
757.000000	0.041888
756.000000	0.041859
755.000000	0.041980
754.000000	0.041889
753.000000	0.041867
752.000000	0.041928
751.000000	0.041971
750.000000	0.042032
749.000000	0.042117
748.000000	0.042169
747.000000	0.042209
746.000000	0.042205
745.000000	0.042239
744.000000	0.042307
743.000000	0.042236
742.000000	0.042206
741.000000	0.042199
740.000000	0.042044
739.000000	0.041843
738.000000	0.041804
737.000000	0.041602
736.000000	0.041216
735.000000	0.040877
734.000000	0.040475
733.000000	0.040021
732.000000	0.039396
731.000000	0.038820
730.000000	0.038317
729.000000	0.037753
728.000000	0.037288
727.000000	0.036897
726.000000	0.036539
725.000000	0.036228
724.000000	0.036024
723.000000	0.035749
722.000000	0.035459
721.000000	0.035158
720.000000	0.034966
719.000000	0.034898
718.000000	0.034612
717.000000	0.034322
716.000000	0.034131
715.000000	0.033912
714.000000	0.033633
713.000000	0.033382
712.000000	0.033214
711.000000	0.032969
710.000000	0.032743
709.000000	0.032664
708.000000	0.032523
707.000000	0.032317
706.000000	0.032160
705.000000	0.032055
704.000000	0.031867
703.000000	0.031668
702.000000	0.031676
701.000000	0.031642
700.000000	0.031445
699.000000	0.031293
698.000000	0.031266
697.000000	0.031212
696.000000	0.031094
695.000000	0.031045
694.000000	0.031045
693.000000	0.031043
692.000000	0.030963
691.000000	0.030973
690.000000	0.031012
689.000000	0.031001
688.000000	0.031068
687.000000	0.031154
686.000000	0.031119
685.000000	0.031113
684.000000	0.031265
683.000000	0.031329
682.000000	0.031339
681.000000	0.031475
680.000000	0.031533
679.000000	0.031579
678.000000	0.031699
677.000000	0.031802
676.000000	0.031802
675.000000	0.031797
674.000000	0.031845
673.000000	0.031965
672.000000	0.031959
671.000000	0.031908
670.000000	0.031969
669.000000	0.032002
668.000000	0.031938
667.000000	0.031929
666.000000	0.031914
665.000000	0.031911
664.000000	0.031839
663.000000	0.031818
662.000000	0.031784
661.000000	0.031679
660.000000	0.031652
659.000000	0.031627
658.000000	0.031636
657.000000	0.031578
656.000000	0.031504
655.000000	0.031555
654.000000	0.031490
653.000000	0.031446
652.000000	0.031483
651.000000	0.031527
650.000000	0.031500
649.000000	0.031460
648.000000	0.031486
647.000000	0.031521
646.000000	0.031524
645.000000	0.031538
644.000000	0.031598
643.000000	0.031588
642.000000	0.031513
641.000000	0.031612
640.000000	0.031734
639.000000	0.031699
638.000000	0.031604
637.000000	0.031762
636.000000	0.031725
635.000000	0.031724
634.000000	0.031698
633.000000	0.031868
632.000000	0.031781
631.000000	0.031775
630.000000	0.031768
629.000000	0.031798
628.000000	0.031783
627.000000	0.031776
626.000000	0.031817
625.000000	0.031910
624.000000	0.031851
623.000000	0.031925
622.000000	0.031922
621.000000	0.032019
620.000000	0.032022
619.000000	0.032069
618.000000	0.032147
617.000000	0.032135
616.000000	0.032171
615.000000	0.032351
614.000000	0.032325
613.000000	0.032295
612.000000	0.032343
611.000000	0.032460
610.000000	0.032441
609.000000	0.032452
608.000000	0.032507
607.000000	0.032434
606.000000	0.032462
605.000000	0.032526
604.000000	0.032558
603.000000	0.032590
602.000000	0.032435
601.000000	0.032356
600.000000	0.032457
599.000000	0.032403
598.000000	0.032277
597.000000	0.032255
596.000000	0.032220
595.000000	0.032041
594.000000	0.032102
593.000000	0.032125
592.000000	0.031982
591.000000	0.031837
590.000000	0.031798
589.000000	0.031736
588.000000	0.031652
587.000000	0.031586
586.000000	0.031615
585.000000	0.031655
584.000000	0.031522
583.000000	0.031415
582.000000	0.031505
581.000000	0.031487
580.000000	0.031384
579.000000	0.031433
578.000000	0.031520
577.000000	0.031348
576.000000	0.031251
575.000000	0.031403
574.000000	0.031370
573.000000	0.031265
572.000000	0.031339
571.000000	0.031427
570.000000	0.031237
569.000000	0.031233
568.000000	0.031308
567.000000	0.031350
566.000000	0.031342
565.000000	0.031407
564.000000	0.031517
563.000000	0.031530
562.000000	0.031497
561.000000	0.031556
560.000000	0.031565
559.000000	0.031679
558.000000	0.031679
557.000000	0.031821
556.000000	0.031867
555.000000	0.031836
554.000000	0.032024
553.000000	0.032085
552.000000	0.032025
551.000000	0.031986
550.000000	0.032073
549.000000	0.032108
548.000000	0.032129
547.000000	0.032251
546.000000	0.032324
545.000000	0.032249
544.000000	0.032247
543.000000	0.032387
542.000000	0.032509
541.000000	0.032457
540.000000	0.032427
539.000000	0.032520
538.000000	0.032557
537.000000	0.032567
536.000000	0.032655
535.000000	0.032750
534.000000	0.032647
533.000000	0.032673
532.000000	0.032808
531.000000	0.032835
530.000000	0.032824
529.000000	0.032873
528.000000	0.032876
527.000000	0.032869
526.000000	0.032838
525.000000	0.032905
524.000000	0.032913
523.000000	0.032885
522.000000	0.032901
521.000000	0.032963
520.000000	0.032956
519.000000	0.032935
518.000000	0.032975
517.000000	0.032984
516.000000	0.032920
515.000000	0.032899
514.000000	0.032962
513.000000	0.032959
512.000000	0.032897
511.000000	0.032905
510.000000	0.032905
509.000000	0.032810
508.000000	0.032708
507.000000	0.032672
506.000000	0.032719
505.000000	0.032658
504.000000	0.032613
503.000000	0.032660
502.000000	0.032608
501.000000	0.032488
500.000000	0.032461
499.000000	0.032465
498.000000	0.032421
497.000000	0.032310
496.000000	0.032248
495.000000	0.032316
494.000000	0.032228
493.000000	0.032164
492.000000	0.032197
491.000000	0.032089
490.000000	0.031943
489.000000	0.031952
488.000000	0.032002
487.000000	0.031919
486.000000	0.031827
485.000000	0.031851
484.000000	0.031864
483.000000	0.031826
482.000000	0.031823
481.000000	0.031858
480.000000	0.031818
479.000000	0.031715
478.000000	0.031728
477.000000	0.031777
476.000000	0.031788
475.000000	0.031761
474.000000	0.031854
473.000000	0.031939
472.000000	0.031832
471.000000	0.031840
470.000000	0.032004
469.000000	0.031961
468.000000	0.031958
467.000000	0.032099
466.000000	0.032181
465.000000	0.032168
464.000000	0.032207
463.000000	0.032266
462.000000	0.032303
461.000000	0.032278
460.000000	0.032377
459.000000	0.032423
458.000000	0.032417
457.000000	0.032371
456.000000	0.032539
455.000000	0.032634
454.000000	0.032622
453.000000	0.032633
452.000000	0.032761
451.000000	0.032794
450.000000	0.032719
449.000000	0.032811
448.000000	0.032975
447.000000	0.032984
446.000000	0.032985
445.000000	0.032995
444.000000	0.033109
443.000000	0.033106
442.000000	0.033042
441.000000	0.033181
440.000000	0.033204
439.000000	0.033111
438.000000	0.033236
437.000000	0.033344
436.000000	0.033370
435.000000	0.033351
434.000000	0.033458
433.000000	0.033543
432.000000	0.033448
431.000000	0.033519
430.000000	0.033630
429.000000	0.033616
428.000000	0.033542
427.000000	0.033656
426.000000	0.033765
425.000000	0.033730
424.000000	0.033706
423.000000	0.033819
422.000000	0.033943
421.000000	0.033859
420.000000	0.033819
419.000000	0.033935
418.000000	0.033955
417.000000	0.033868
416.000000	0.033997
415.000000	0.034104
414.000000	0.033918
413.000000	0.033900
412.000000	0.034039
411.000000	0.034100
410.000000	0.033994
409.000000	0.034040
408.000000	0.034072
407.000000	0.033973
406.000000	0.033880
405.000000	0.033996
404.000000	0.034142
403.000000	0.033956
402.000000	0.033937
401.000000	0.034059
400.000000	0.034075
399.000000	0.033924
398.000000	0.034088
397.000000	0.034079
396.000000	0.033997
395.000000	0.033929
394.000000	0.033962
393.000000	0.034144
392.000000	0.034084
391.000000	0.033983
390.000000	0.034028
389.000000	0.034022
388.000000	0.033925
387.000000	0.034034
386.000000	0.034156
385.000000	0.034028
384.000000	0.033964
383.000000	0.034069
382.000000	0.034073
381.000000	0.033997
380.000000	0.034046
379.000000	0.034090
378.000000	0.034103
377.000000	0.033926
376.000000	0.034135
375.000000	0.033999
374.000000	0.034000
373.000000	0.033946
372.000000	0.034190
371.000000	0.034190
370.000000	0.034086
369.000000	0.034171
368.000000	0.034234
367.000000	0.034209
366.000000	0.034171
365.000000	0.034284
364.000000	0.034376
363.000000	0.034349
362.000000	0.034455
361.000000	0.034489
360.000000	0.034376
359.000000	0.034423
358.000000	0.034624
357.000000	0.034678
356.000000	0.034645
355.000000	0.034676
354.000000	0.034816
353.000000	0.034804
352.000000	0.034814
351.000000	0.034856
350.000000	0.034929
349.000000	0.034887
348.000000	0.034943
347.000000	0.035128
346.000000	0.035240
345.000000	0.035067
344.000000	0.035159
343.000000	0.035233
342.000000	0.035271
341.000000	0.035269
340.000000	0.035358
339.000000	0.035503
338.000000	0.035492
337.000000	0.035476
336.000000	0.035631
335.000000	0.035698
334.000000	0.035658
333.000000	0.035754
332.000000	0.035863
331.000000	0.035810
330.000000	0.035780
329.000000	0.035934
328.000000	0.036028
327.000000	0.035954
326.000000	0.035949
325.000000	0.036094
324.000000	0.036111
323.000000	0.036056
322.000000	0.036209
321.000000	0.036283
320.000000	0.036251
319.000000	0.036252
318.000000	0.036058
317.000000	0.035784
316.000000	0.035951
315.000000	0.036071
314.000000	0.036010
313.000000	0.036050
312.000000	0.036247
311.000000	0.036319
310.000000	0.036373
309.000000	0.036433
308.000000	0.036538
307.000000	0.036534
306.000000	0.036568
305.000000	0.036669
304.000000	0.036822
303.000000	0.036894
302.000000	0.036909
301.000000	0.037055
300.000000	0.037150
299.000000	0.037224
298.000000	0.037393
297.000000	0.037479
296.000000	0.037421
295.000000	0.037434
294.000000	0.037657
293.000000	0.037721
292.000000	0.037751
291.000000	0.037924
290.000000	0.038074
289.000000	0.038145
288.000000	0.038221
287.000000	0.038412
286.000000	0.038628
285.000000	0.038648
284.000000	0.038664
283.000000	0.038867
282.000000	0.038946
281.000000	0.038977
280.000000	0.039159
279.000000	0.039344
278.000000	0.039371
277.000000	0.039411
276.000000	0.039568
275.000000	0.039701
274.000000	0.039848
273.000000	0.039969
272.000000	0.040034
271.000000	0.040055
270.000000	0.040069
269.000000	0.040255
268.000000	0.040427
267.000000	0.040479
266.000000	0.040529
265.000000	0.040691
264.000000	0.040844
263.000000	0.040880
262.000000	0.041012
261.000000	0.041249
260.000000	0.041236
259.000000	0.041273
258.000000	0.041522
257.000000	0.041655
256.000000	0.041711
255.000000	0.041871
254.000000	0.042023
253.000000	0.042128
252.000000	0.042262
251.000000	0.042518
250.000000	0.042732
249.000000	0.042896
248.000000	0.043057
247.000000	0.043298
246.000000	0.043581
245.000000	0.043827
244.000000	0.044063
243.000000	0.044336
242.000000	0.044542
241.000000	0.044801
240.000000	0.045116
239.000000	0.045471
238.000000	0.045890
237.000000	0.046152
236.000000	0.046513
235.000000	0.046907
234.000000	0.047236
233.000000	0.047642
232.000000	0.048219
231.000000	0.048552
230.000000	0.048906
229.000000	0.049409
228.000000	0.049812
227.000000	0.050181
226.000000	0.050724
225.000000	0.051224
224.000000	0.051768
223.000000	0.052104
222.000000	0.052565
221.000000	0.053229
220.000000	0.053907
219.000000	0.054375
218.000000	0.055046
217.000000	0.055746
216.000000	0.056455
215.000000	0.057346
214.000000	0.058466
213.000000	0.059483
212.000000	0.060551
211.000000	0.061959
210.000000	0.063446
209.000000	0.065013
208.000000	0.066894
207.000000	0.068792
206.000000	0.071285
205.000000	0.073640
204.000000	0.076503
203.000000	0.079801
202.000000	0.083118
201.000000	0.086715
200.000000	0.091265
