PE UV       SUBTECH     SPECTRUM    ASCII       PEDS        4.00        
   -1
MQ7_1CM_CELL.Sample.Raw.asc
10/09/03
15:13:40.00
10/09/03
15:13:40.00
Hermanni Kaartokallio

200.000000
1
Lambda 650
650N8121101
PerkinElmer UV WinLab 6.0.2.0723 / 1.61.00 Lambda 650

0
0
2
0
0
UV/VIS
1
1
1
uv/vis/nir detector
0
0
0
0
Fix
 
0
0.24
0
0
0
 
 
 
0
 
0
319.2
0
Front
100
 
 
 
0
0
0
 
0
 
 
 
0
 
 
0
0
0
0
0
 
 
 
 
0
0
#HDR
-1
-1
#GR
nm
A
1.0
0.0
800.000000
-1.000000
601
8
0.114241
0.031249
#DATA
800.000000	0.040453
799.000000	0.040676
798.000000	0.041092
797.000000	0.040774
796.000000	0.041175
795.000000	0.041224
794.000000	0.041328
793.000000	0.041303
792.000000	0.041474
791.000000	0.041540
790.000000	0.041787
789.000000	0.041603
788.000000	0.041761
787.000000	0.042016
786.000000	0.042047
785.000000	0.041854
784.000000	0.042109
783.000000	0.042288
782.000000	0.042135
781.000000	0.042267
780.000000	0.042513
779.000000	0.042425
778.000000	0.042583
777.000000	0.042503
776.000000	0.042570
775.000000	0.042529
774.000000	0.042481
773.000000	0.042346
772.000000	0.042619
771.000000	0.042407
770.000000	0.042392
769.000000	0.042568
768.000000	0.042483
767.000000	0.042182
766.000000	0.042515
765.000000	0.042502
764.000000	0.042342
763.000000	0.042361
762.000000	0.042414
761.000000	0.042204
760.000000	0.042237
759.000000	0.042198
758.000000	0.042206
757.000000	0.042108
756.000000	0.041995
755.000000	0.042047
754.000000	0.042200
753.000000	0.042101
752.000000	0.042146
751.000000	0.042297
750.000000	0.042283
749.000000	0.042026
748.000000	0.042330
747.000000	0.042341
746.000000	0.042334
745.000000	0.042331
744.000000	0.042436
743.000000	0.042335
742.000000	0.042366
741.000000	0.042250
740.000000	0.042245
739.000000	0.042150
738.000000	0.041938
737.000000	0.041606
736.000000	0.041497
735.000000	0.041099
734.000000	0.040622
733.000000	0.040269
732.000000	0.039704
731.000000	0.038988
730.000000	0.038618
729.000000	0.038096
728.000000	0.037624
727.000000	0.037244
726.000000	0.036898
725.000000	0.036589
724.000000	0.036434
723.000000	0.036132
722.000000	0.035962
721.000000	0.035692
720.000000	0.035300
719.000000	0.035162
718.000000	0.035102
717.000000	0.034772
716.000000	0.034570
715.000000	0.034401
714.000000	0.034065
713.000000	0.033677
712.000000	0.033594
711.000000	0.033413
710.000000	0.033236
709.000000	0.033088
708.000000	0.032837
707.000000	0.032697
706.000000	0.032621
705.000000	0.032434
704.000000	0.032335
703.000000	0.032189
702.000000	0.031985
701.000000	0.031966
700.000000	0.031967
699.000000	0.031737
698.000000	0.031622
697.000000	0.031633
696.000000	0.031431
695.000000	0.031303
694.000000	0.031387
693.000000	0.031399
692.000000	0.031349
691.000000	0.031369
690.000000	0.031290
689.000000	0.031249
688.000000	0.031419
687.000000	0.031417
686.000000	0.031492
685.000000	0.031550
684.000000	0.031559
683.000000	0.031677
682.000000	0.031814
681.000000	0.031716
680.000000	0.031868
679.000000	0.032048
678.000000	0.032107
677.000000	0.032172
676.000000	0.032270
675.000000	0.032125
674.000000	0.032233
673.000000	0.032341
672.000000	0.032372
671.000000	0.032456
670.000000	0.032469
669.000000	0.032253
668.000000	0.032430
667.000000	0.032425
666.000000	0.032335
665.000000	0.032369
664.000000	0.032410
663.000000	0.032235
662.000000	0.032276
661.000000	0.032275
660.000000	0.032242
659.000000	0.032244
658.000000	0.032301
657.000000	0.032164
656.000000	0.032218
655.000000	0.032208
654.000000	0.032196
653.000000	0.032207
652.000000	0.032264
651.000000	0.032117
650.000000	0.032331
649.000000	0.032337
648.000000	0.032237
647.000000	0.032257
646.000000	0.032432
645.000000	0.032209
644.000000	0.032447
643.000000	0.032504
642.000000	0.032463
641.000000	0.032505
640.000000	0.032562
639.000000	0.032424
638.000000	0.032594
637.000000	0.032687
636.000000	0.032639
635.000000	0.032627
634.000000	0.032676
633.000000	0.032507
632.000000	0.032744
631.000000	0.032762
630.000000	0.032716
629.000000	0.032687
628.000000	0.032722
627.000000	0.032507
626.000000	0.032680
625.000000	0.032793
624.000000	0.032851
623.000000	0.032816
622.000000	0.032900
621.000000	0.032852
620.000000	0.033038
619.000000	0.032962
618.000000	0.032996
617.000000	0.033138
616.000000	0.033168
615.000000	0.033171
614.000000	0.033342
613.000000	0.033270
612.000000	0.033217
611.000000	0.033236
610.000000	0.033385
609.000000	0.033382
608.000000	0.033468
607.000000	0.033280
606.000000	0.033387
605.000000	0.033437
604.000000	0.033426
603.000000	0.033166
602.000000	0.033460
601.000000	0.033226
600.000000	0.033276
599.000000	0.033218
598.000000	0.033206
597.000000	0.033086
596.000000	0.032747
595.000000	0.033113
594.000000	0.032891
593.000000	0.032802
592.000000	0.032720
591.000000	0.032746
590.000000	0.032424
589.000000	0.032680
588.000000	0.032489
587.000000	0.032474
586.000000	0.032492
585.000000	0.032575
584.000000	0.032261
583.000000	0.032561
582.000000	0.032404
581.000000	0.032406
580.000000	0.032371
579.000000	0.032436
578.000000	0.032282
577.000000	0.032556
576.000000	0.032368
575.000000	0.032387
574.000000	0.032422
573.000000	0.032418
572.000000	0.032262
571.000000	0.032648
570.000000	0.032416
569.000000	0.032464
568.000000	0.032488
567.000000	0.032568
566.000000	0.032400
565.000000	0.032667
564.000000	0.032636
563.000000	0.032665
562.000000	0.032706
561.000000	0.032678
560.000000	0.032771
559.000000	0.032755
558.000000	0.032983
557.000000	0.032936
556.000000	0.033046
555.000000	0.033126
554.000000	0.033220
553.000000	0.033137
552.000000	0.033305
551.000000	0.033257
550.000000	0.033283
549.000000	0.033344
548.000000	0.033397
547.000000	0.033362
546.000000	0.033620
545.000000	0.033544
544.000000	0.033618
543.000000	0.033753
542.000000	0.033772
541.000000	0.033702
540.000000	0.033912
539.000000	0.033892
538.000000	0.033948
537.000000	0.033956
536.000000	0.033944
535.000000	0.033932
534.000000	0.034108
533.000000	0.034066
532.000000	0.034122
531.000000	0.034191
530.000000	0.034180
529.000000	0.034226
528.000000	0.034386
527.000000	0.034235
526.000000	0.034214
525.000000	0.034307
524.000000	0.034264
523.000000	0.034219
522.000000	0.034404
521.000000	0.034365
520.000000	0.034380
519.000000	0.034420
518.000000	0.034377
517.000000	0.034299
516.000000	0.034431
515.000000	0.034426
514.000000	0.034390
513.000000	0.034389
512.000000	0.034303
511.000000	0.034258
510.000000	0.034359
509.000000	0.034235
508.000000	0.034188
507.000000	0.034203
506.000000	0.034085
505.000000	0.034036
504.000000	0.034181
503.000000	0.034099
502.000000	0.034043
501.000000	0.034021
500.000000	0.033854
499.000000	0.033879
498.000000	0.033974
497.000000	0.033846
496.000000	0.033822
495.000000	0.033868
494.000000	0.033716
493.000000	0.033712
492.000000	0.033800
491.000000	0.033703
490.000000	0.033661
489.000000	0.033719
488.000000	0.033587
487.000000	0.033608
486.000000	0.033706
485.000000	0.033661
484.000000	0.033661
483.000000	0.033760
482.000000	0.033621
481.000000	0.033705
480.000000	0.033742
479.000000	0.033677
478.000000	0.033696
477.000000	0.033737
476.000000	0.033593
475.000000	0.033733
474.000000	0.033850
473.000000	0.033857
472.000000	0.033880
471.000000	0.033940
470.000000	0.033851
469.000000	0.034001
468.000000	0.034097
467.000000	0.034154
466.000000	0.034184
465.000000	0.034306
464.000000	0.034256
463.000000	0.034379
462.000000	0.034385
461.000000	0.034378
460.000000	0.034531
459.000000	0.034619
458.000000	0.034437
457.000000	0.034607
456.000000	0.034757
455.000000	0.034766
454.000000	0.034839
453.000000	0.034964
452.000000	0.034882
451.000000	0.035075
450.000000	0.035030
449.000000	0.035116
448.000000	0.035186
447.000000	0.035252
446.000000	0.035125
445.000000	0.035335
444.000000	0.035421
443.000000	0.035418
442.000000	0.035446
441.000000	0.035555
440.000000	0.035373
439.000000	0.035696
438.000000	0.035701
437.000000	0.035733
436.000000	0.035810
435.000000	0.035900
434.000000	0.035709
433.000000	0.035986
432.000000	0.035924
431.000000	0.036072
430.000000	0.036127
429.000000	0.036151
428.000000	0.036092
427.000000	0.036419
426.000000	0.036351
425.000000	0.036364
424.000000	0.036383
423.000000	0.036414
422.000000	0.036629
421.000000	0.036465
420.000000	0.036716
419.000000	0.036757
418.000000	0.036686
417.000000	0.036622
416.000000	0.036610
415.000000	0.036749
414.000000	0.036846
413.000000	0.036874
412.000000	0.036945
411.000000	0.036924
410.000000	0.036868
409.000000	0.037030
408.000000	0.037028
407.000000	0.037071
406.000000	0.037116
405.000000	0.037010
404.000000	0.037029
403.000000	0.037037
402.000000	0.037020
401.000000	0.036989
400.000000	0.037049
399.000000	0.037039
398.000000	0.036898
397.000000	0.037223
396.000000	0.037141
395.000000	0.037094
394.000000	0.037214
393.000000	0.037383
392.000000	0.036953
391.000000	0.037382
390.000000	0.037267
389.000000	0.037321
388.000000	0.037337
387.000000	0.037524
386.000000	0.037290
385.000000	0.037579
384.000000	0.037494
383.000000	0.037577
382.000000	0.037601
381.000000	0.037642
380.000000	0.037441
379.000000	0.037918
378.000000	0.037723
377.000000	0.037767
376.000000	0.037548
375.000000	0.037841
374.000000	0.037793
373.000000	0.037942
372.000000	0.038035
371.000000	0.038187
370.000000	0.037951
369.000000	0.038418
368.000000	0.038272
367.000000	0.038255
366.000000	0.038390
365.000000	0.038569
364.000000	0.038380
363.000000	0.038792
362.000000	0.038787
361.000000	0.038750
360.000000	0.038734
359.000000	0.038966
358.000000	0.038976
357.000000	0.039258
356.000000	0.039147
355.000000	0.039287
354.000000	0.039416
353.000000	0.039367
352.000000	0.039361
351.000000	0.039784
350.000000	0.039671
349.000000	0.039707
348.000000	0.039851
347.000000	0.040053
346.000000	0.039937
345.000000	0.040176
344.000000	0.040210
343.000000	0.040303
342.000000	0.040315
341.000000	0.040437
340.000000	0.040505
339.000000	0.040678
338.000000	0.040714
337.000000	0.040801
336.000000	0.040922
335.000000	0.040961
334.000000	0.040924
333.000000	0.041338
332.000000	0.041274
331.000000	0.041224
330.000000	0.041395
329.000000	0.041486
328.000000	0.041425
327.000000	0.041668
326.000000	0.041689
325.000000	0.041815
324.000000	0.041892
323.000000	0.041899
322.000000	0.041971
321.000000	0.042247
320.000000	0.042205
319.000000	0.042336
318.000000	0.042165
317.000000	0.041843
316.000000	0.041923
315.000000	0.042040
314.000000	0.042223
313.000000	0.042310
312.000000	0.042483
311.000000	0.042519
310.000000	0.042633
309.000000	0.042833
308.000000	0.043048
307.000000	0.042999
306.000000	0.043168
305.000000	0.043367
304.000000	0.043325
303.000000	0.043438
302.000000	0.043766
301.000000	0.043820
300.000000	0.043879
299.000000	0.044092
298.000000	0.044219
297.000000	0.044323
296.000000	0.044529
295.000000	0.044615
294.000000	0.044787
293.000000	0.044899
292.000000	0.044918
291.000000	0.045163
290.000000	0.045463
289.000000	0.045515
288.000000	0.045660
287.000000	0.046004
286.000000	0.046106
285.000000	0.046257
284.000000	0.046450
283.000000	0.046592
282.000000	0.046662
281.000000	0.046895
280.000000	0.047039
279.000000	0.047264
278.000000	0.047379
277.000000	0.047511
276.000000	0.047734
275.000000	0.047869
274.000000	0.047888
273.000000	0.048299
272.000000	0.048482
271.000000	0.048439
270.000000	0.048700
269.000000	0.049067
268.000000	0.049004
267.000000	0.049208
266.000000	0.049477
265.000000	0.049680
264.000000	0.049807
263.000000	0.049965
262.000000	0.050063
261.000000	0.050539
260.000000	0.050554
259.000000	0.050778
258.000000	0.051129
257.000000	0.051323
256.000000	0.051223
255.000000	0.051778
254.000000	0.052018
253.000000	0.052137
252.000000	0.052486
251.000000	0.052902
250.000000	0.052914
249.000000	0.053437
248.000000	0.053715
247.000000	0.054103
246.000000	0.054363
245.000000	0.054619
244.000000	0.054820
243.000000	0.055509
242.000000	0.055700
241.000000	0.056131
240.000000	0.056649
239.000000	0.057062
238.000000	0.057260
237.000000	0.058067
236.000000	0.058496
235.000000	0.058905
234.000000	0.059373
233.000000	0.060038
232.000000	0.060404
231.000000	0.061101
230.000000	0.061645
229.000000	0.062421
228.000000	0.062753
227.000000	0.063403
226.000000	0.064044
225.000000	0.065012
224.000000	0.065563
223.000000	0.066044
222.000000	0.066926
221.000000	0.067795
220.000000	0.068378
219.000000	0.069510
218.000000	0.070528
217.000000	0.071496
216.000000	0.072629
215.000000	0.073983
214.000000	0.075193
213.000000	0.076898
212.000000	0.078509
211.000000	0.080263
210.000000	0.081944
209.000000	0.084131
208.000000	0.086280
207.000000	0.089049
206.000000	0.091703
205.000000	0.094663
204.000000	0.098159
203.000000	0.101946
202.000000	0.105398
201.000000	0.109762
200.000000	0.114241
