PE UV       SUBTECH     SPECTRUM    ASCII       PEDS        4.00        
   -1
KY6-02B.Sample.Raw.asc
11/10/07
13:09:31.00
11/10/07
13:09:31.00
Hermanni Kaartokallio

200.000000
1
Lambda 650
650N8121101
PerkinElmer UV WinLab 6.0.2.0723 / 1.61.00 Lambda 650

0
0
2
0
0
UV/VIS
1
1
1
uv/vis/nir detector
0
0
0
0
Fix
 
0
0.24
0
0
0
 
 
 
0
 
0
319.2
0
Front
100
 
 
 
0
0
0
 
0
 
 
 
0
 
 
0
0
0
0
0
 
 
 
 
0
0
#HDR
-1
-1
#GR
nm
A
1.0
0.0
800.000000
-1.000000
601
8
2.630730
0.038683
#DATA
800.000000	0.045026
799.000000	0.044988
798.000000	0.045172
797.000000	0.045130
796.000000	0.045308
795.000000	0.045317
794.000000	0.045501
793.000000	0.045492
792.000000	0.045506
791.000000	0.045656
790.000000	0.045852
789.000000	0.045868
788.000000	0.045919
787.000000	0.046098
786.000000	0.046120
785.000000	0.046248
784.000000	0.046227
783.000000	0.046259
782.000000	0.046339
781.000000	0.046391
780.000000	0.046392
779.000000	0.046433
778.000000	0.046477
777.000000	0.046523
776.000000	0.046534
775.000000	0.046643
774.000000	0.046676
773.000000	0.046679
772.000000	0.046752
771.000000	0.046854
770.000000	0.046916
769.000000	0.046915
768.000000	0.046902
767.000000	0.046920
766.000000	0.047004
765.000000	0.047058
764.000000	0.047082
763.000000	0.047087
762.000000	0.047113
761.000000	0.047264
760.000000	0.047227
759.000000	0.047252
758.000000	0.047365
757.000000	0.047456
756.000000	0.047408
755.000000	0.047495
754.000000	0.047574
753.000000	0.047591
752.000000	0.047570
751.000000	0.047720
750.000000	0.047657
749.000000	0.047701
748.000000	0.047777
747.000000	0.047822
746.000000	0.047872
745.000000	0.047874
744.000000	0.047800
743.000000	0.047813
742.000000	0.047836
741.000000	0.047874
740.000000	0.047744
739.000000	0.047660
738.000000	0.047513
737.000000	0.047393
736.000000	0.047152
735.000000	0.046869
734.000000	0.046502
733.000000	0.045973
732.000000	0.045464
731.000000	0.045038
730.000000	0.044622
729.000000	0.044184
728.000000	0.043701
727.000000	0.043331
726.000000	0.043000
725.000000	0.042809
724.000000	0.042581
723.000000	0.042295
722.000000	0.042017
721.000000	0.041858
720.000000	0.041605
719.000000	0.041402
718.000000	0.041207
717.000000	0.041033
716.000000	0.040907
715.000000	0.040617
714.000000	0.040341
713.000000	0.040236
712.000000	0.040094
711.000000	0.039957
710.000000	0.039888
709.000000	0.039761
708.000000	0.039616
707.000000	0.039503
706.000000	0.039422
705.000000	0.039262
704.000000	0.039136
703.000000	0.039073
702.000000	0.039052
701.000000	0.039019
700.000000	0.038997
699.000000	0.039033
698.000000	0.038935
697.000000	0.038852
696.000000	0.038836
695.000000	0.038845
694.000000	0.038838
693.000000	0.038768
692.000000	0.038769
691.000000	0.038725
690.000000	0.038692
689.000000	0.038683
688.000000	0.038683
687.000000	0.038711
686.000000	0.038691
685.000000	0.038683
684.000000	0.038711
683.000000	0.038711
682.000000	0.038692
681.000000	0.038755
680.000000	0.038902
679.000000	0.038961
678.000000	0.038970
677.000000	0.038881
676.000000	0.038839
675.000000	0.038859
674.000000	0.038861
673.000000	0.038910
672.000000	0.038993
671.000000	0.039069
670.000000	0.039040
669.000000	0.039001
668.000000	0.039009
667.000000	0.039067
666.000000	0.039133
665.000000	0.039170
664.000000	0.038998
663.000000	0.038963
662.000000	0.039055
661.000000	0.038968
660.000000	0.038998
659.000000	0.038961
658.000000	0.038878
657.000000	0.039081
656.000000	0.039024
655.000000	0.039037
654.000000	0.039015
653.000000	0.038873
652.000000	0.038820
651.000000	0.038784
650.000000	0.038850
649.000000	0.038905
648.000000	0.038937
647.000000	0.038942
646.000000	0.038937
645.000000	0.039019
644.000000	0.039012
643.000000	0.039043
642.000000	0.039141
641.000000	0.039229
640.000000	0.039250
639.000000	0.039276
638.000000	0.039318
637.000000	0.039341
636.000000	0.039362
635.000000	0.039412
634.000000	0.039399
633.000000	0.039441
632.000000	0.039647
631.000000	0.039693
630.000000	0.039699
629.000000	0.039689
628.000000	0.039682
627.000000	0.039798
626.000000	0.039871
625.000000	0.039925
624.000000	0.039980
623.000000	0.039994
622.000000	0.040066
621.000000	0.040191
620.000000	0.040214
619.000000	0.040319
618.000000	0.040305
617.000000	0.040319
616.000000	0.040466
615.000000	0.040496
614.000000	0.040607
613.000000	0.040644
612.000000	0.040715
611.000000	0.040802
610.000000	0.040874
609.000000	0.040951
608.000000	0.041039
607.000000	0.041098
606.000000	0.041107
605.000000	0.041279
604.000000	0.041198
603.000000	0.041334
602.000000	0.041445
601.000000	0.041512
600.000000	0.041505
599.000000	0.041527
598.000000	0.041456
597.000000	0.041562
596.000000	0.041517
595.000000	0.041600
594.000000	0.041698
593.000000	0.041772
592.000000	0.041754
591.000000	0.041792
590.000000	0.041903
589.000000	0.041924
588.000000	0.042040
587.000000	0.042050
586.000000	0.042028
585.000000	0.041929
584.000000	0.042139
583.000000	0.042217
582.000000	0.042211
581.000000	0.042231
580.000000	0.042372
579.000000	0.042310
578.000000	0.042368
577.000000	0.042402
576.000000	0.042538
575.000000	0.042575
574.000000	0.042587
573.000000	0.042559
572.000000	0.042674
571.000000	0.042791
570.000000	0.042854
569.000000	0.042893
568.000000	0.042917
567.000000	0.042947
566.000000	0.042982
565.000000	0.043150
564.000000	0.043131
563.000000	0.043246
562.000000	0.043274
561.000000	0.043277
560.000000	0.043293
559.000000	0.043402
558.000000	0.043516
557.000000	0.043539
556.000000	0.043695
555.000000	0.043685
554.000000	0.043753
553.000000	0.043866
552.000000	0.043935
551.000000	0.043996
550.000000	0.044049
549.000000	0.044073
548.000000	0.044118
547.000000	0.044269
546.000000	0.044401
545.000000	0.044457
544.000000	0.044526
543.000000	0.044565
542.000000	0.044604
541.000000	0.044710
540.000000	0.044885
539.000000	0.044930
538.000000	0.044995
537.000000	0.045142
536.000000	0.045271
535.000000	0.045302
534.000000	0.045469
533.000000	0.045641
532.000000	0.045663
531.000000	0.045697
530.000000	0.045858
529.000000	0.046022
528.000000	0.046113
527.000000	0.046248
526.000000	0.046439
525.000000	0.046539
524.000000	0.046607
523.000000	0.046805
522.000000	0.046932
521.000000	0.047073
520.000000	0.047248
519.000000	0.047318
518.000000	0.047499
517.000000	0.047692
516.000000	0.047887
515.000000	0.048066
514.000000	0.048115
513.000000	0.048159
512.000000	0.048307
511.000000	0.048534
510.000000	0.048699
509.000000	0.048856
508.000000	0.049006
507.000000	0.049149
506.000000	0.049273
505.000000	0.049420
504.000000	0.049552
503.000000	0.049692
502.000000	0.049848
501.000000	0.049965
500.000000	0.050124
499.000000	0.050279
498.000000	0.050413
497.000000	0.050661
496.000000	0.050809
495.000000	0.050888
494.000000	0.051117
493.000000	0.051299
492.000000	0.051400
491.000000	0.051562
490.000000	0.051810
489.000000	0.051953
488.000000	0.052076
487.000000	0.052313
486.000000	0.052519
485.000000	0.052687
484.000000	0.052870
483.000000	0.053028
482.000000	0.053222
481.000000	0.053391
480.000000	0.053587
479.000000	0.053815
478.000000	0.054027
477.000000	0.054213
476.000000	0.054460
475.000000	0.054742
474.000000	0.054911
473.000000	0.055150
472.000000	0.055463
471.000000	0.055618
470.000000	0.055798
469.000000	0.056077
468.000000	0.056437
467.000000	0.056722
466.000000	0.056920
465.000000	0.057181
464.000000	0.057516
463.000000	0.057786
462.000000	0.058114
461.000000	0.058455
460.000000	0.058779
459.000000	0.059041
458.000000	0.059415
457.000000	0.059806
456.000000	0.060132
455.000000	0.060414
454.000000	0.060777
453.000000	0.061132
452.000000	0.061472
451.000000	0.061872
450.000000	0.062299
449.000000	0.062718
448.000000	0.063044
447.000000	0.063517
446.000000	0.063949
445.000000	0.064413
444.000000	0.064822
443.000000	0.065226
442.000000	0.065688
441.000000	0.066076
440.000000	0.066583
439.000000	0.067112
438.000000	0.067632
437.000000	0.068112
436.000000	0.068643
435.000000	0.069024
434.000000	0.069567
433.000000	0.070171
432.000000	0.070751
431.000000	0.071311
430.000000	0.071784
429.000000	0.072335
428.000000	0.073014
427.000000	0.073543
426.000000	0.074155
425.000000	0.074795
424.000000	0.075366
423.000000	0.075887
422.000000	0.076583
421.000000	0.077251
420.000000	0.077901
419.000000	0.078520
418.000000	0.079231
417.000000	0.079858
416.000000	0.080521
415.000000	0.081216
414.000000	0.081908
413.000000	0.082710
412.000000	0.083358
411.000000	0.084023
410.000000	0.084899
409.000000	0.085569
408.000000	0.086307
407.000000	0.087013
406.000000	0.087889
405.000000	0.088488
404.000000	0.089253
403.000000	0.090199
402.000000	0.091101
401.000000	0.091865
400.000000	0.092680
399.000000	0.093540
398.000000	0.094435
397.000000	0.095314
396.000000	0.096267
395.000000	0.097172
394.000000	0.098134
393.000000	0.099003
392.000000	0.099977
391.000000	0.101091
390.000000	0.102008
389.000000	0.102970
388.000000	0.104074
387.000000	0.104996
386.000000	0.106167
385.000000	0.107438
384.000000	0.108526
383.000000	0.109533
382.000000	0.110747
381.000000	0.111872
380.000000	0.113132
379.000000	0.114255
378.000000	0.115622
377.000000	0.116717
376.000000	0.118143
375.000000	0.119613
374.000000	0.120832
373.000000	0.122249
372.000000	0.123521
371.000000	0.124983
370.000000	0.126527
369.000000	0.128020
368.000000	0.129485
367.000000	0.131055
366.000000	0.132553
365.000000	0.133995
364.000000	0.135786
363.000000	0.137449
362.000000	0.139025
361.000000	0.140684
360.000000	0.142401
359.000000	0.144123
358.000000	0.145825
357.000000	0.147667
356.000000	0.149417
355.000000	0.151354
354.000000	0.153108
353.000000	0.155014
352.000000	0.156974
351.000000	0.158797
350.000000	0.160685
349.000000	0.162796
348.000000	0.164694
347.000000	0.166594
346.000000	0.168631
345.000000	0.170927
344.000000	0.172963
343.000000	0.175019
342.000000	0.177015
341.000000	0.179141
340.000000	0.181384
339.000000	0.183591
338.000000	0.185815
337.000000	0.188020
336.000000	0.190292
335.000000	0.192543
334.000000	0.194976
333.000000	0.197374
332.000000	0.199672
331.000000	0.202085
330.000000	0.204570
329.000000	0.207054
328.000000	0.209498
327.000000	0.212008
326.000000	0.214509
325.000000	0.217113
324.000000	0.219730
323.000000	0.222411
322.000000	0.225080
321.000000	0.227868
320.000000	0.230518
319.000000	0.233421
318.000000	0.235300
317.000000	0.236283
316.000000	0.239000
315.000000	0.242123
314.000000	0.245059
313.000000	0.247972
312.000000	0.250878
311.000000	0.253922
310.000000	0.256975
309.000000	0.260105
308.000000	0.263223
307.000000	0.266470
306.000000	0.269702
305.000000	0.272882
304.000000	0.276176
303.000000	0.279643
302.000000	0.283059
301.000000	0.286466
300.000000	0.290003
299.000000	0.293444
298.000000	0.296987
297.000000	0.300606
296.000000	0.304338
295.000000	0.308101
294.000000	0.311831
293.000000	0.315791
292.000000	0.319833
291.000000	0.323934
290.000000	0.327925
289.000000	0.332156
288.000000	0.336428
287.000000	0.340540
286.000000	0.344824
285.000000	0.349338
284.000000	0.353555
283.000000	0.357538
282.000000	0.361832
281.000000	0.366138
280.000000	0.370323
279.000000	0.374619
278.000000	0.379101
277.000000	0.383604
276.000000	0.387974
275.000000	0.392437
274.000000	0.397039
273.000000	0.401566
272.000000	0.406104
271.000000	0.410602
270.000000	0.415026
269.000000	0.419365
268.000000	0.423746
267.000000	0.428228
266.000000	0.432572
265.000000	0.436796
264.000000	0.440996
263.000000	0.445185
262.000000	0.449275
261.000000	0.453368
260.000000	0.457353
259.000000	0.461284
258.000000	0.465125
257.000000	0.468939
256.000000	0.472936
255.000000	0.476883
254.000000	0.480764
253.000000	0.484911
252.000000	0.489165
251.000000	0.493302
250.000000	0.497656
249.000000	0.502320
248.000000	0.507208
247.000000	0.512247
246.000000	0.517673
245.000000	0.523533
244.000000	0.529651
243.000000	0.536195
242.000000	0.543089
241.000000	0.550518
240.000000	0.558256
239.000000	0.566495
238.000000	0.575423
237.000000	0.584805
236.000000	0.594803
235.000000	0.605539
234.000000	0.617177
233.000000	0.629725
232.000000	0.643155
231.000000	0.657318
230.000000	0.672746
229.000000	0.689387
228.000000	0.707361
227.000000	0.726867
226.000000	0.748142
225.000000	0.770940
224.000000	0.795824
223.000000	0.822637
222.000000	0.851579
221.000000	0.882405
220.000000	0.915368
219.000000	0.950601
218.000000	0.987429
217.000000	1.027042
216.000000	1.069354
215.000000	1.113684
214.000000	1.161065
213.000000	1.211635
212.000000	1.264502
211.000000	1.320576
210.000000	1.380764
209.000000	1.444765
208.000000	1.514028
207.000000	1.588944
206.000000	1.672752
205.000000	1.767005
204.000000	1.875087
203.000000	2.004801
202.000000	2.165307
201.000000	2.366903
200.000000	2.630730
