PE UV       SUBTECH     SPECTRUM    ASCII       PEDS        4.00        
   -1
KY6-01A.Sample.Raw.asc
11/10/07
12:55:18.00
11/10/07
12:55:18.00
Hermanni Kaartokallio

200.000000
1
Lambda 650
650N8121101
PerkinElmer UV WinLab 6.0.2.0723 / 1.61.00 Lambda 650

0
0
2
0
0
UV/VIS
1
1
1
uv/vis/nir detector
0
0
0
0
Fix
 
0
0.24
0
0
0
 
 
 
0
 
0
319.2
0
Front
100
 
 
 
0
0
0
 
0
 
 
 
0
 
 
0
0
0
0
0
 
 
 
 
0
0
#HDR
-1
-1
#GR
nm
A
1.0
0.0
800.000000
-1.000000
601
8
4.101602
0.041144
#DATA
800.000000	0.045402
799.000000	0.045514
798.000000	0.045454
797.000000	0.045454
796.000000	0.045650
795.000000	0.045803
794.000000	0.045888
793.000000	0.045854
792.000000	0.045841
791.000000	0.046152
790.000000	0.046208
789.000000	0.046167
788.000000	0.046419
787.000000	0.046588
786.000000	0.046568
785.000000	0.046698
784.000000	0.046839
783.000000	0.046899
782.000000	0.046891
781.000000	0.047086
780.000000	0.047079
779.000000	0.047079
778.000000	0.047129
777.000000	0.047172
776.000000	0.047185
775.000000	0.047195
774.000000	0.047261
773.000000	0.047399
772.000000	0.047457
771.000000	0.047497
770.000000	0.047524
769.000000	0.047647
768.000000	0.047642
767.000000	0.047705
766.000000	0.047837
765.000000	0.047758
764.000000	0.047784
763.000000	0.047823
762.000000	0.047825
761.000000	0.047983
760.000000	0.048018
759.000000	0.048045
758.000000	0.048198
757.000000	0.048197
756.000000	0.048189
755.000000	0.048345
754.000000	0.048313
753.000000	0.048324
752.000000	0.048388
751.000000	0.048465
750.000000	0.048433
749.000000	0.048499
748.000000	0.048554
747.000000	0.048603
746.000000	0.048707
745.000000	0.048727
744.000000	0.048668
743.000000	0.048719
742.000000	0.048705
741.000000	0.048753
740.000000	0.048734
739.000000	0.048632
738.000000	0.048460
737.000000	0.048379
736.000000	0.048188
735.000000	0.047882
734.000000	0.047557
733.000000	0.047151
732.000000	0.046670
731.000000	0.046198
730.000000	0.045799
729.000000	0.045444
728.000000	0.045050
727.000000	0.044709
726.000000	0.044425
725.000000	0.044229
724.000000	0.043973
723.000000	0.043791
722.000000	0.043621
721.000000	0.043438
720.000000	0.043194
719.000000	0.043041
718.000000	0.042853
717.000000	0.042677
716.000000	0.042552
715.000000	0.042363
714.000000	0.042153
713.000000	0.042082
712.000000	0.042028
711.000000	0.041972
710.000000	0.041868
709.000000	0.041750
708.000000	0.041679
707.000000	0.041598
706.000000	0.041495
705.000000	0.041380
704.000000	0.041322
703.000000	0.041292
702.000000	0.041291
701.000000	0.041289
700.000000	0.041315
699.000000	0.041362
698.000000	0.041274
697.000000	0.041197
696.000000	0.041147
695.000000	0.041151
694.000000	0.041233
693.000000	0.041225
692.000000	0.041197
691.000000	0.041167
690.000000	0.041182
689.000000	0.041160
688.000000	0.041144
687.000000	0.041232
686.000000	0.041317
685.000000	0.041349
684.000000	0.041375
683.000000	0.041448
682.000000	0.041455
681.000000	0.041536
680.000000	0.041689
679.000000	0.041729
678.000000	0.041715
677.000000	0.041734
676.000000	0.041743
675.000000	0.041761
674.000000	0.041869
673.000000	0.042059
672.000000	0.042141
671.000000	0.042177
670.000000	0.042226
669.000000	0.042281
668.000000	0.042312
667.000000	0.042385
666.000000	0.042481
665.000000	0.042603
664.000000	0.042479
663.000000	0.042435
662.000000	0.042551
661.000000	0.042593
660.000000	0.042616
659.000000	0.042626
658.000000	0.042696
657.000000	0.042873
656.000000	0.042811
655.000000	0.042839
654.000000	0.042910
653.000000	0.042788
652.000000	0.042728
651.000000	0.042823
650.000000	0.042963
649.000000	0.043012
648.000000	0.043073
647.000000	0.043211
646.000000	0.043266
645.000000	0.043327
644.000000	0.043434
643.000000	0.043506
642.000000	0.043661
641.000000	0.043730
640.000000	0.043832
639.000000	0.043846
638.000000	0.043983
637.000000	0.044030
636.000000	0.044138
635.000000	0.044225
634.000000	0.044243
633.000000	0.044352
632.000000	0.044571
631.000000	0.044671
630.000000	0.044744
629.000000	0.044802
628.000000	0.044883
627.000000	0.044976
626.000000	0.045087
625.000000	0.045263
624.000000	0.045336
623.000000	0.045431
622.000000	0.045566
621.000000	0.045723
620.000000	0.045806
619.000000	0.045977
618.000000	0.046129
617.000000	0.046195
616.000000	0.046316
615.000000	0.046429
614.000000	0.046615
613.000000	0.046743
612.000000	0.046879
611.000000	0.047059
610.000000	0.047135
609.000000	0.047282
608.000000	0.047455
607.000000	0.047569
606.000000	0.047685
605.000000	0.047825
604.000000	0.047926
603.000000	0.048061
602.000000	0.048222
601.000000	0.048363
600.000000	0.048475
599.000000	0.048539
598.000000	0.048577
597.000000	0.048713
596.000000	0.048864
595.000000	0.048936
594.000000	0.049091
593.000000	0.049259
592.000000	0.049353
591.000000	0.049502
590.000000	0.049631
589.000000	0.049739
588.000000	0.049942
587.000000	0.050060
586.000000	0.050201
585.000000	0.050271
584.000000	0.050468
583.000000	0.050618
582.000000	0.050741
581.000000	0.050876
580.000000	0.051046
579.000000	0.051160
578.000000	0.051336
577.000000	0.051491
576.000000	0.051729
575.000000	0.051789
574.000000	0.051930
573.000000	0.051980
572.000000	0.052216
571.000000	0.052423
570.000000	0.052612
569.000000	0.052701
568.000000	0.052876
567.000000	0.053038
566.000000	0.053235
565.000000	0.053434
564.000000	0.053578
563.000000	0.053816
562.000000	0.053936
561.000000	0.054117
560.000000	0.054275
559.000000	0.054470
558.000000	0.054591
557.000000	0.054788
556.000000	0.055056
555.000000	0.055241
554.000000	0.055406
553.000000	0.055569
552.000000	0.055783
551.000000	0.055928
550.000000	0.056179
549.000000	0.056397
548.000000	0.056525
547.000000	0.056776
546.000000	0.057041
545.000000	0.057192
544.000000	0.057370
543.000000	0.057581
542.000000	0.057797
541.000000	0.058012
540.000000	0.058315
539.000000	0.058567
538.000000	0.058804
537.000000	0.059005
536.000000	0.059271
535.000000	0.059504
534.000000	0.059827
533.000000	0.060141
532.000000	0.060344
531.000000	0.060551
530.000000	0.060842
529.000000	0.061141
528.000000	0.061450
527.000000	0.061766
526.000000	0.062034
525.000000	0.062342
524.000000	0.062676
523.000000	0.062970
522.000000	0.063252
521.000000	0.063563
520.000000	0.063866
519.000000	0.064166
518.000000	0.064519
517.000000	0.064924
516.000000	0.065290
515.000000	0.065601
514.000000	0.065882
513.000000	0.066214
512.000000	0.066542
511.000000	0.066960
510.000000	0.067362
509.000000	0.067685
508.000000	0.068013
507.000000	0.068374
506.000000	0.068739
505.000000	0.069126
504.000000	0.069512
503.000000	0.069881
502.000000	0.070250
501.000000	0.070647
500.000000	0.070981
499.000000	0.071320
498.000000	0.071707
497.000000	0.072194
496.000000	0.072641
495.000000	0.072961
494.000000	0.073374
493.000000	0.073842
492.000000	0.074264
491.000000	0.074753
490.000000	0.075202
489.000000	0.075557
488.000000	0.076002
487.000000	0.076545
486.000000	0.076992
485.000000	0.077418
484.000000	0.077892
483.000000	0.078319
482.000000	0.078816
481.000000	0.079414
480.000000	0.079952
479.000000	0.080435
478.000000	0.080953
477.000000	0.081523
476.000000	0.082084
475.000000	0.082630
474.000000	0.083254
473.000000	0.083854
472.000000	0.084480
471.000000	0.085030
470.000000	0.085604
469.000000	0.086248
468.000000	0.086890
467.000000	0.087588
466.000000	0.088284
465.000000	0.088954
464.000000	0.089695
463.000000	0.090432
462.000000	0.091137
461.000000	0.091866
460.000000	0.092645
459.000000	0.093418
458.000000	0.094261
457.000000	0.095044
456.000000	0.095857
455.000000	0.096672
454.000000	0.097486
453.000000	0.098360
452.000000	0.099298
451.000000	0.100207
450.000000	0.101133
449.000000	0.102088
448.000000	0.103025
447.000000	0.104024
446.000000	0.105041
445.000000	0.106139
444.000000	0.107194
443.000000	0.108192
442.000000	0.109275
441.000000	0.110372
440.000000	0.111477
439.000000	0.112629
438.000000	0.113875
437.000000	0.115158
436.000000	0.116400
435.000000	0.117525
434.000000	0.118829
433.000000	0.120253
432.000000	0.121574
431.000000	0.122913
430.000000	0.124348
429.000000	0.125696
428.000000	0.127180
427.000000	0.128639
426.000000	0.130137
425.000000	0.131701
424.000000	0.133229
423.000000	0.134762
422.000000	0.136500
421.000000	0.138116
420.000000	0.139814
419.000000	0.141586
418.000000	0.143340
417.000000	0.145014
416.000000	0.146942
415.000000	0.148779
414.000000	0.150636
413.000000	0.152657
412.000000	0.154518
411.000000	0.156567
410.000000	0.158557
409.000000	0.160596
408.000000	0.162705
407.000000	0.164832
406.000000	0.167052
405.000000	0.169251
404.000000	0.171425
403.000000	0.173800
402.000000	0.176153
401.000000	0.178522
400.000000	0.180936
399.000000	0.183385
398.000000	0.185918
397.000000	0.188548
396.000000	0.191186
395.000000	0.193745
394.000000	0.196517
393.000000	0.199253
392.000000	0.201912
391.000000	0.204934
390.000000	0.207859
389.000000	0.210762
388.000000	0.213756
387.000000	0.216803
386.000000	0.219987
385.000000	0.223117
384.000000	0.226516
383.000000	0.229671
382.000000	0.233099
381.000000	0.236356
380.000000	0.239969
379.000000	0.243451
378.000000	0.247515
377.000000	0.250987
376.000000	0.254824
375.000000	0.258681
374.000000	0.262395
373.000000	0.266361
372.000000	0.270309
371.000000	0.274201
370.000000	0.278438
369.000000	0.282643
368.000000	0.286904
367.000000	0.291185
366.000000	0.295473
365.000000	0.299802
364.000000	0.304557
363.000000	0.309165
362.000000	0.313697
361.000000	0.318432
360.000000	0.323235
359.000000	0.328041
358.000000	0.332871
357.000000	0.337870
356.000000	0.342827
355.000000	0.348040
354.000000	0.353176
353.000000	0.358387
352.000000	0.363328
351.000000	0.368661
350.000000	0.374099
349.000000	0.379694
348.000000	0.385153
347.000000	0.390597
346.000000	0.396362
345.000000	0.402110
344.000000	0.407925
343.000000	0.413881
342.000000	0.419713
341.000000	0.425674
340.000000	0.431872
339.000000	0.438046
338.000000	0.444195
337.000000	0.450497
336.000000	0.456845
335.000000	0.463316
334.000000	0.469713
333.000000	0.476233
332.000000	0.483041
331.000000	0.489737
330.000000	0.496497
329.000000	0.503536
328.000000	0.510364
327.000000	0.517404
326.000000	0.524562
325.000000	0.531807
324.000000	0.539099
323.000000	0.546510
322.000000	0.553913
321.000000	0.561540
320.000000	0.569031
319.000000	0.576627
318.000000	0.583693
317.000000	0.590226
316.000000	0.597796
315.000000	0.605742
314.000000	0.613469
313.000000	0.621394
312.000000	0.629473
311.000000	0.637655
310.000000	0.645788
309.000000	0.654069
308.000000	0.662537
307.000000	0.671044
306.000000	0.679536
305.000000	0.688111
304.000000	0.696800
303.000000	0.705654
302.000000	0.714522
301.000000	0.723506
300.000000	0.732534
299.000000	0.741624
298.000000	0.750860
297.000000	0.760162
296.000000	0.769649
295.000000	0.779301
294.000000	0.789068
293.000000	0.799016
292.000000	0.809057
291.000000	0.819384
290.000000	0.829773
289.000000	0.840421
288.000000	0.851199
287.000000	0.861949
286.000000	0.872939
285.000000	0.884060
284.000000	0.895170
283.000000	0.906385
282.000000	0.917743
281.000000	0.929074
280.000000	0.940466
279.000000	0.952010
278.000000	0.963720
277.000000	0.975559
276.000000	0.987424
275.000000	0.999242
274.000000	1.011218
273.000000	1.023318
272.000000	1.035446
271.000000	1.047447
270.000000	1.059306
269.000000	1.070968
268.000000	1.082507
267.000000	1.093999
266.000000	1.105393
265.000000	1.116580
264.000000	1.127524
263.000000	1.138281
262.000000	1.148722
261.000000	1.158989
260.000000	1.169078
259.000000	1.178911
258.000000	1.188763
257.000000	1.198635
256.000000	1.208367
255.000000	1.218228
254.000000	1.228090
253.000000	1.238153
252.000000	1.248584
251.000000	1.259447
250.000000	1.270817
249.000000	1.282627
248.000000	1.294994
247.000000	1.308235
246.000000	1.322393
245.000000	1.337218
244.000000	1.353081
243.000000	1.370206
242.000000	1.388307
241.000000	1.407320
240.000000	1.427657
239.000000	1.449168
238.000000	1.471964
237.000000	1.496669
236.000000	1.522954
235.000000	1.550823
234.000000	1.580688
233.000000	1.613232
232.000000	1.648417
231.000000	1.686468
230.000000	1.726887
229.000000	1.770639
228.000000	1.818252
227.000000	1.869695
226.000000	1.925290
225.000000	1.986047
224.000000	2.051681
223.000000	2.121678
222.000000	2.196732
221.000000	2.276011
220.000000	2.360036
219.000000	2.448725
218.000000	2.540326
217.000000	2.636951
216.000000	2.733579
215.000000	2.829955
214.000000	2.934543
213.000000	3.043801
212.000000	3.141621
211.000000	3.233655
210.000000	3.339049
209.000000	3.432731
208.000000	3.510198
207.000000	3.604236
206.000000	3.712166
205.000000	3.795016
204.000000	3.853183
203.000000	3.908939
202.000000	3.981187
201.000000	4.037440
200.000000	4.101602
