PE UV       SUBTECH     SPECTRUM    ASCII       PEDS        4.00        
   -1
MQ10710.Sample.Raw.asc
11/10/07
12:39:03.00
11/10/07
12:39:03.00
Hermanni Kaartokallio

200.000000
1
Lambda 650
650N8121101
PerkinElmer UV WinLab 6.0.2.0723 / 1.61.00 Lambda 650

0
0
2
0
0
UV/VIS
1
1
1
uv/vis/nir detector
0
0
0
0
Fix
 
0
0.24
0
0
0
 
 
 
0
 
0
319.2
0
Front
100
 
 
 
0
0
0
 
0
 
 
 
0
 
 
0
0
0
0
0
 
 
 
 
0
0
#HDR
-1
-1
#GR
nm
A
1.0
0.0
800.000000
-1.000000
601
8
0.151607
0.035023
#DATA
800.000000	0.043382
799.000000	0.043332
798.000000	0.043488
797.000000	0.043352
796.000000	0.043578
795.000000	0.043586
794.000000	0.043710
793.000000	0.043737
792.000000	0.043730
791.000000	0.043904
790.000000	0.043947
789.000000	0.043943
788.000000	0.044076
787.000000	0.044240
786.000000	0.044146
785.000000	0.044360
784.000000	0.044362
783.000000	0.044335
782.000000	0.044492
781.000000	0.044601
780.000000	0.044494
779.000000	0.044475
778.000000	0.044632
777.000000	0.044593
776.000000	0.044738
775.000000	0.044815
774.000000	0.044756
773.000000	0.044815
772.000000	0.044873
771.000000	0.044907
770.000000	0.044891
769.000000	0.044931
768.000000	0.044911
767.000000	0.045030
766.000000	0.045027
765.000000	0.045093
764.000000	0.045050
763.000000	0.045048
762.000000	0.045113
761.000000	0.045236
760.000000	0.045249
759.000000	0.045223
758.000000	0.045337
757.000000	0.045358
756.000000	0.045315
755.000000	0.045430
754.000000	0.045443
753.000000	0.045362
752.000000	0.045431
751.000000	0.045458
750.000000	0.045414
749.000000	0.045474
748.000000	0.045506
747.000000	0.045465
746.000000	0.045560
745.000000	0.045511
744.000000	0.045400
743.000000	0.045368
742.000000	0.045412
741.000000	0.045408
740.000000	0.045303
739.000000	0.045216
738.000000	0.044979
737.000000	0.044885
736.000000	0.044659
735.000000	0.044341
734.000000	0.043942
733.000000	0.043455
732.000000	0.042949
731.000000	0.042425
730.000000	0.041965
729.000000	0.041529
728.000000	0.041069
727.000000	0.040677
726.000000	0.040338
725.000000	0.040113
724.000000	0.039866
723.000000	0.039640
722.000000	0.039422
721.000000	0.039177
720.000000	0.038922
719.000000	0.038729
718.000000	0.038525
717.000000	0.038338
716.000000	0.038123
715.000000	0.037908
714.000000	0.037708
713.000000	0.037557
712.000000	0.037416
711.000000	0.037278
710.000000	0.037181
709.000000	0.037034
708.000000	0.036909
707.000000	0.036789
706.000000	0.036655
705.000000	0.036527
704.000000	0.036411
703.000000	0.036347
702.000000	0.036326
701.000000	0.036294
700.000000	0.036289
699.000000	0.036265
698.000000	0.036167
697.000000	0.036052
696.000000	0.035955
695.000000	0.035956
694.000000	0.035952
693.000000	0.035888
692.000000	0.035880
691.000000	0.035862
690.000000	0.035780
689.000000	0.035698
688.000000	0.035639
687.000000	0.035653
686.000000	0.035687
685.000000	0.035671
684.000000	0.035661
683.000000	0.035621
682.000000	0.035588
681.000000	0.035689
680.000000	0.035745
679.000000	0.035678
678.000000	0.035655
677.000000	0.035627
676.000000	0.035579
675.000000	0.035527
674.000000	0.035583
673.000000	0.035661
672.000000	0.035699
671.000000	0.035710
670.000000	0.035641
669.000000	0.035642
668.000000	0.035591
667.000000	0.035651
666.000000	0.035698
665.000000	0.035699
664.000000	0.035553
663.000000	0.035441
662.000000	0.035461
661.000000	0.035476
660.000000	0.035512
659.000000	0.035436
658.000000	0.035317
657.000000	0.035442
656.000000	0.035391
655.000000	0.035338
654.000000	0.035294
653.000000	0.035172
652.000000	0.035071
651.000000	0.035023
650.000000	0.035072
649.000000	0.035066
648.000000	0.035081
647.000000	0.035122
646.000000	0.035095
645.000000	0.035118
644.000000	0.035144
643.000000	0.035127
642.000000	0.035152
641.000000	0.035164
640.000000	0.035120
639.000000	0.035113
638.000000	0.035162
637.000000	0.035109
636.000000	0.035116
635.000000	0.035117
634.000000	0.035091
633.000000	0.035139
632.000000	0.035277
631.000000	0.035260
630.000000	0.035269
629.000000	0.035224
628.000000	0.035188
627.000000	0.035281
626.000000	0.035306
625.000000	0.035312
624.000000	0.035330
623.000000	0.035326
622.000000	0.035269
621.000000	0.035379
620.000000	0.035417
619.000000	0.035451
618.000000	0.035461
617.000000	0.035444
616.000000	0.035444
615.000000	0.035473
614.000000	0.035537
613.000000	0.035571
612.000000	0.035611
611.000000	0.035622
610.000000	0.035574
609.000000	0.035634
608.000000	0.035711
607.000000	0.035722
606.000000	0.035681
605.000000	0.035776
604.000000	0.035790
603.000000	0.035740
602.000000	0.035747
601.000000	0.035787
600.000000	0.035733
599.000000	0.035695
598.000000	0.035656
597.000000	0.035665
596.000000	0.035623
595.000000	0.035584
594.000000	0.035626
593.000000	0.035700
592.000000	0.035608
591.000000	0.035653
590.000000	0.035661
589.000000	0.035665
588.000000	0.035653
587.000000	0.035658
586.000000	0.035624
585.000000	0.035524
584.000000	0.035654
583.000000	0.035626
582.000000	0.035587
581.000000	0.035567
580.000000	0.035652
579.000000	0.035556
578.000000	0.035588
577.000000	0.035607
576.000000	0.035657
575.000000	0.035603
574.000000	0.035563
573.000000	0.035449
572.000000	0.035490
571.000000	0.035549
570.000000	0.035553
569.000000	0.035527
568.000000	0.035503
567.000000	0.035519
566.000000	0.035533
565.000000	0.035624
564.000000	0.035553
563.000000	0.035582
562.000000	0.035484
561.000000	0.035505
560.000000	0.035438
559.000000	0.035505
558.000000	0.035560
557.000000	0.035520
556.000000	0.035568
555.000000	0.035532
554.000000	0.035490
553.000000	0.035544
552.000000	0.035513
551.000000	0.035518
550.000000	0.035528
549.000000	0.035515
548.000000	0.035409
547.000000	0.035538
546.000000	0.035590
545.000000	0.035560
544.000000	0.035563
543.000000	0.035532
542.000000	0.035526
541.000000	0.035509
540.000000	0.035543
539.000000	0.035548
538.000000	0.035565
537.000000	0.035528
536.000000	0.035574
535.000000	0.035566
534.000000	0.035653
533.000000	0.035738
532.000000	0.035695
531.000000	0.035639
530.000000	0.035715
529.000000	0.035714
528.000000	0.035722
527.000000	0.035762
526.000000	0.035777
525.000000	0.035773
524.000000	0.035854
523.000000	0.035961
522.000000	0.035948
521.000000	0.036003
520.000000	0.036084
519.000000	0.036043
518.000000	0.036039
517.000000	0.036132
516.000000	0.036229
515.000000	0.036353
514.000000	0.036373
513.000000	0.036270
512.000000	0.036216
511.000000	0.036277
510.000000	0.036321
509.000000	0.036345
508.000000	0.036391
507.000000	0.036419
506.000000	0.036403
505.000000	0.036424
504.000000	0.036490
503.000000	0.036486
502.000000	0.036455
501.000000	0.036462
500.000000	0.036419
499.000000	0.036425
498.000000	0.036426
497.000000	0.036451
496.000000	0.036475
495.000000	0.036432
494.000000	0.036461
493.000000	0.036515
492.000000	0.036506
491.000000	0.036546
490.000000	0.036570
489.000000	0.036521
488.000000	0.036476
487.000000	0.036524
486.000000	0.036556
485.000000	0.036532
484.000000	0.036537
483.000000	0.036493
482.000000	0.036524
481.000000	0.036555
480.000000	0.036582
479.000000	0.036547
478.000000	0.036537
477.000000	0.036583
476.000000	0.036612
475.000000	0.036633
474.000000	0.036615
473.000000	0.036659
472.000000	0.036731
471.000000	0.036650
470.000000	0.036611
469.000000	0.036690
468.000000	0.036753
467.000000	0.036794
466.000000	0.036843
465.000000	0.036885
464.000000	0.036888
463.000000	0.036890
462.000000	0.036945
461.000000	0.037014
460.000000	0.037044
459.000000	0.037060
458.000000	0.037115
457.000000	0.037191
456.000000	0.037225
455.000000	0.037201
454.000000	0.037260
453.000000	0.037334
452.000000	0.037386
451.000000	0.037434
450.000000	0.037493
449.000000	0.037577
448.000000	0.037640
447.000000	0.037628
446.000000	0.037753
445.000000	0.037831
444.000000	0.037886
443.000000	0.037914
442.000000	0.037971
441.000000	0.037967
440.000000	0.038070
439.000000	0.038150
438.000000	0.038281
437.000000	0.038361
436.000000	0.038459
435.000000	0.038390
434.000000	0.038509
433.000000	0.038654
432.000000	0.038765
431.000000	0.038814
430.000000	0.038904
429.000000	0.039003
428.000000	0.039039
427.000000	0.039063
426.000000	0.039211
425.000000	0.039352
424.000000	0.039302
423.000000	0.039235
422.000000	0.039395
421.000000	0.039556
420.000000	0.039581
419.000000	0.039660
418.000000	0.039767
417.000000	0.039755
416.000000	0.039896
415.000000	0.039929
414.000000	0.040001
413.000000	0.040200
412.000000	0.040105
411.000000	0.040113
410.000000	0.040260
409.000000	0.040303
408.000000	0.040396
407.000000	0.040398
406.000000	0.040475
405.000000	0.040416
404.000000	0.040488
403.000000	0.040616
402.000000	0.040661
401.000000	0.040646
400.000000	0.040679
399.000000	0.040764
398.000000	0.040767
397.000000	0.040852
396.000000	0.040916
395.000000	0.040859
394.000000	0.040952
393.000000	0.040922
392.000000	0.041017
391.000000	0.041123
390.000000	0.041055
389.000000	0.041113
388.000000	0.041171
387.000000	0.041087
386.000000	0.041272
385.000000	0.041281
384.000000	0.041471
383.000000	0.041385
382.000000	0.041470
381.000000	0.041441
380.000000	0.041549
379.000000	0.041655
378.000000	0.041541
377.000000	0.041556
376.000000	0.041823
375.000000	0.041897
374.000000	0.041900
373.000000	0.042027
372.000000	0.042136
371.000000	0.042252
370.000000	0.042292
369.000000	0.042362
368.000000	0.042484
367.000000	0.042575
366.000000	0.042678
365.000000	0.042682
364.000000	0.042869
363.000000	0.042965
362.000000	0.043027
361.000000	0.043081
360.000000	0.043274
359.000000	0.043300
358.000000	0.043338
357.000000	0.043603
356.000000	0.043549
355.000000	0.043723
354.000000	0.043883
353.000000	0.043820
352.000000	0.043997
351.000000	0.044079
350.000000	0.044230
349.000000	0.044397
348.000000	0.044434
347.000000	0.044414
346.000000	0.044526
345.000000	0.044729
344.000000	0.044830
343.000000	0.044997
342.000000	0.044998
341.000000	0.045130
340.000000	0.045308
339.000000	0.045412
338.000000	0.045524
337.000000	0.045682
336.000000	0.045781
335.000000	0.045871
334.000000	0.046085
333.000000	0.046157
332.000000	0.046258
331.000000	0.046438
330.000000	0.046511
329.000000	0.046688
328.000000	0.046740
327.000000	0.046961
326.000000	0.047106
325.000000	0.047289
324.000000	0.047405
323.000000	0.047530
322.000000	0.047682
321.000000	0.047923
320.000000	0.047985
319.000000	0.048272
318.000000	0.047397
317.000000	0.045288
316.000000	0.045303
315.000000	0.045621
314.000000	0.045793
313.000000	0.045967
312.000000	0.046122
311.000000	0.046276
310.000000	0.046409
309.000000	0.046580
308.000000	0.046822
307.000000	0.046944
306.000000	0.047117
305.000000	0.047311
304.000000	0.047449
303.000000	0.047686
302.000000	0.047905
301.000000	0.048125
300.000000	0.048328
299.000000	0.048483
298.000000	0.048649
297.000000	0.048855
296.000000	0.049138
295.000000	0.049329
294.000000	0.049525
293.000000	0.049789
292.000000	0.050033
291.000000	0.050291
290.000000	0.050517
289.000000	0.050820
288.000000	0.051118
287.000000	0.051311
286.000000	0.051560
285.000000	0.051847
284.000000	0.052036
283.000000	0.052309
282.000000	0.052607
281.000000	0.052723
280.000000	0.052912
279.000000	0.053205
278.000000	0.053420
277.000000	0.053600
276.000000	0.053836
275.000000	0.054069
274.000000	0.054275
273.000000	0.054508
272.000000	0.054743
271.000000	0.055009
270.000000	0.055203
269.000000	0.055274
268.000000	0.055445
267.000000	0.055772
266.000000	0.056015
265.000000	0.056213
264.000000	0.056516
263.000000	0.056750
262.000000	0.056959
261.000000	0.057292
260.000000	0.057566
259.000000	0.057836
258.000000	0.058096
257.000000	0.058388
256.000000	0.058752
255.000000	0.059134
254.000000	0.059528
253.000000	0.059893
252.000000	0.060318
251.000000	0.060676
250.000000	0.061149
249.000000	0.061640
248.000000	0.062186
247.000000	0.062720
246.000000	0.063275
245.000000	0.063803
244.000000	0.064436
243.000000	0.065044
242.000000	0.065729
241.000000	0.066403
240.000000	0.067018
239.000000	0.067721
238.000000	0.068577
237.000000	0.069399
236.000000	0.070139
235.000000	0.070912
234.000000	0.071793
233.000000	0.072681
232.000000	0.073536
231.000000	0.074404
230.000000	0.075317
229.000000	0.076127
228.000000	0.077014
227.000000	0.077926
226.000000	0.078874
225.000000	0.079714
224.000000	0.080822
223.000000	0.081759
222.000000	0.082927
221.000000	0.084158
220.000000	0.085539
219.000000	0.086996
218.000000	0.088391
217.000000	0.090082
216.000000	0.092094
215.000000	0.093982
214.000000	0.096241
213.000000	0.098627
212.000000	0.101064
211.000000	0.103897
210.000000	0.106795
209.000000	0.110004
208.000000	0.113429
207.000000	0.117016
206.000000	0.121041
205.000000	0.125293
204.000000	0.129897
203.000000	0.135009
202.000000	0.140080
201.000000	0.145635
200.000000	0.151607
