PE UV       SUBTECH     SPECTRUM    ASCII       PEDS        4.00        
   -1
MQ1_1CM_CELL.Sample.Raw.asc
10/11/12
10:03:19.00
10/11/12
10:03:19.00
Hermanni Kaartokallio

200.000000
1
Lambda 650
650N8121101
PerkinElmer UV WinLab 6.0.2.0723 / 1.61.00 Lambda 650

0
0
2
0
0
UV/VIS
1
1
1
uv/vis/nir detector
0
0
0
0
Fix
 
0
0.24
0
0
0
 
 
 
0
 
0
319.2
0
Front
100
 
 
 
0
0
0
 
0
 
 
 
0
 
 
0
0
0
0
0
 
 
 
 
0
0
#HDR
-1
-1
#GR
nm
A
1.0
0.0
800.000000
-1.000000
601
8
0.099074
0.032874
#DATA
800.000000	0.042324
799.000000	0.042465
798.000000	0.042699
797.000000	0.042752
796.000000	0.042842
795.000000	0.042968
794.000000	0.042936
793.000000	0.043197
792.000000	0.043040
791.000000	0.043274
790.000000	0.043344
789.000000	0.043301
788.000000	0.043455
787.000000	0.043490
786.000000	0.043284
785.000000	0.043376
784.000000	0.043605
783.000000	0.043730
782.000000	0.043752
781.000000	0.043759
780.000000	0.043662
779.000000	0.043664
778.000000	0.043759
777.000000	0.043829
776.000000	0.043834
775.000000	0.043889
774.000000	0.043805
773.000000	0.043906
772.000000	0.043873
771.000000	0.043794
770.000000	0.043767
769.000000	0.043781
768.000000	0.043675
767.000000	0.043729
766.000000	0.043800
765.000000	0.043776
764.000000	0.043745
763.000000	0.043701
762.000000	0.043665
761.000000	0.043732
760.000000	0.043737
759.000000	0.043676
758.000000	0.043687
757.000000	0.043672
756.000000	0.043629
755.000000	0.043794
754.000000	0.043840
753.000000	0.043885
752.000000	0.043946
751.000000	0.044011
750.000000	0.044040
749.000000	0.044184
748.000000	0.044177
747.000000	0.044189
746.000000	0.044274
745.000000	0.044405
744.000000	0.044394
743.000000	0.044432
742.000000	0.044426
741.000000	0.044452
740.000000	0.044399
739.000000	0.044204
738.000000	0.043976
737.000000	0.043771
736.000000	0.043430
735.000000	0.043005
734.000000	0.042607
733.000000	0.042175
732.000000	0.041540
731.000000	0.041011
730.000000	0.040499
729.000000	0.039982
728.000000	0.039473
727.000000	0.039072
726.000000	0.038741
725.000000	0.038419
724.000000	0.038058
723.000000	0.037813
722.000000	0.037601
721.000000	0.037298
720.000000	0.036947
719.000000	0.036716
718.000000	0.036570
717.000000	0.036325
716.000000	0.036116
715.000000	0.035836
714.000000	0.035501
713.000000	0.035287
712.000000	0.035130
711.000000	0.034980
710.000000	0.034732
709.000000	0.034505
708.000000	0.034332
707.000000	0.034135
706.000000	0.033914
705.000000	0.033819
704.000000	0.033750
703.000000	0.033548
702.000000	0.033426
701.000000	0.033381
700.000000	0.033307
699.000000	0.033244
698.000000	0.033148
697.000000	0.033024
696.000000	0.032957
695.000000	0.032953
694.000000	0.032977
693.000000	0.033074
692.000000	0.033059
691.000000	0.032992
690.000000	0.033005
689.000000	0.033039
688.000000	0.033032
687.000000	0.033297
686.000000	0.033442
685.000000	0.033355
684.000000	0.033349
683.000000	0.033451
682.000000	0.033487
681.000000	0.033543
680.000000	0.033726
679.000000	0.033818
678.000000	0.033809
677.000000	0.033863
676.000000	0.034001
675.000000	0.034107
674.000000	0.034176
673.000000	0.034202
672.000000	0.034193
671.000000	0.034222
670.000000	0.034254
669.000000	0.034379
668.000000	0.034419
667.000000	0.034292
666.000000	0.034317
665.000000	0.034307
664.000000	0.034207
663.000000	0.034070
662.000000	0.034003
661.000000	0.034012
660.000000	0.034005
659.000000	0.033899
658.000000	0.033794
657.000000	0.033772
656.000000	0.033670
655.000000	0.033559
654.000000	0.033548
653.000000	0.033486
652.000000	0.033356
651.000000	0.033386
650.000000	0.033468
649.000000	0.033358
648.000000	0.033291
647.000000	0.033321
646.000000	0.033243
645.000000	0.033215
644.000000	0.033171
643.000000	0.033159
642.000000	0.033112
641.000000	0.033116
640.000000	0.033083
639.000000	0.033061
638.000000	0.033090
637.000000	0.033046
636.000000	0.033047
635.000000	0.033084
634.000000	0.032874
633.000000	0.032890
632.000000	0.032990
631.000000	0.033042
630.000000	0.032967
629.000000	0.033012
628.000000	0.032902
627.000000	0.033040
626.000000	0.033011
625.000000	0.033100
624.000000	0.033165
623.000000	0.033043
622.000000	0.033107
621.000000	0.033193
620.000000	0.033213
619.000000	0.033160
618.000000	0.033346
617.000000	0.033402
616.000000	0.033349
615.000000	0.033439
614.000000	0.033636
613.000000	0.033657
612.000000	0.033645
611.000000	0.033646
610.000000	0.033809
609.000000	0.033728
608.000000	0.033772
607.000000	0.033884
606.000000	0.033947
605.000000	0.033855
604.000000	0.033876
603.000000	0.034054
602.000000	0.034070
601.000000	0.033930
600.000000	0.033936
599.000000	0.034015
598.000000	0.033954
597.000000	0.033778
596.000000	0.033888
595.000000	0.033867
594.000000	0.033710
593.000000	0.033783
592.000000	0.033809
591.000000	0.033716
590.000000	0.033663
589.000000	0.033702
588.000000	0.033753
587.000000	0.033678
586.000000	0.033687
585.000000	0.033531
584.000000	0.033525
583.000000	0.033452
582.000000	0.033497
581.000000	0.033553
580.000000	0.033452
579.000000	0.033265
578.000000	0.033337
577.000000	0.033462
576.000000	0.033351
575.000000	0.033316
574.000000	0.033357
573.000000	0.033303
572.000000	0.033286
571.000000	0.033329
570.000000	0.033389
569.000000	0.033396
568.000000	0.033382
567.000000	0.033436
566.000000	0.033561
565.000000	0.033607
564.000000	0.033596
563.000000	0.033630
562.000000	0.033684
561.000000	0.033657
560.000000	0.033686
559.000000	0.033734
558.000000	0.033786
557.000000	0.033877
556.000000	0.033943
555.000000	0.033975
554.000000	0.033974
553.000000	0.034171
552.000000	0.034192
551.000000	0.034182
550.000000	0.034261
549.000000	0.034301
548.000000	0.034315
547.000000	0.034282
546.000000	0.034393
545.000000	0.034499
544.000000	0.034483
543.000000	0.034477
542.000000	0.034505
541.000000	0.034619
540.000000	0.034664
539.000000	0.034695
538.000000	0.034716
537.000000	0.034643
536.000000	0.034608
535.000000	0.034706
534.000000	0.034805
533.000000	0.034820
532.000000	0.034834
531.000000	0.034858
530.000000	0.034867
529.000000	0.034912
528.000000	0.034879
527.000000	0.034983
526.000000	0.035015
525.000000	0.034979
524.000000	0.034995
523.000000	0.035086
522.000000	0.035120
521.000000	0.035160
520.000000	0.035218
519.000000	0.035199
518.000000	0.035141
517.000000	0.035197
516.000000	0.035261
515.000000	0.035258
514.000000	0.035232
513.000000	0.035228
512.000000	0.035192
511.000000	0.035169
510.000000	0.035155
509.000000	0.035141
508.000000	0.035084
507.000000	0.034995
506.000000	0.035025
505.000000	0.035045
504.000000	0.034974
503.000000	0.034925
502.000000	0.034930
501.000000	0.034848
500.000000	0.034715
499.000000	0.034756
498.000000	0.034745
497.000000	0.034646
496.000000	0.034598
495.000000	0.034554
494.000000	0.034512
493.000000	0.034455
492.000000	0.034415
491.000000	0.034365
490.000000	0.034355
489.000000	0.034265
488.000000	0.034193
487.000000	0.034210
486.000000	0.034137
485.000000	0.034121
484.000000	0.034141
483.000000	0.034118
482.000000	0.034038
481.000000	0.034049
480.000000	0.034049
479.000000	0.034049
478.000000	0.034022
477.000000	0.034025
476.000000	0.034115
475.000000	0.034101
474.000000	0.034093
473.000000	0.034142
472.000000	0.034157
471.000000	0.034115
470.000000	0.034109
469.000000	0.034260
468.000000	0.034352
467.000000	0.034236
466.000000	0.034309
465.000000	0.034302
464.000000	0.034323
463.000000	0.034414
462.000000	0.034429
461.000000	0.034452
460.000000	0.034454
459.000000	0.034440
458.000000	0.034557
457.000000	0.034610
456.000000	0.034558
455.000000	0.034670
454.000000	0.034757
453.000000	0.034675
452.000000	0.034684
451.000000	0.034880
450.000000	0.034957
449.000000	0.034858
448.000000	0.034948
447.000000	0.034965
446.000000	0.035041
445.000000	0.035075
444.000000	0.035192
443.000000	0.035265
442.000000	0.035211
441.000000	0.035143
440.000000	0.035250
439.000000	0.035401
438.000000	0.035360
437.000000	0.035428
436.000000	0.035548
435.000000	0.035452
434.000000	0.035505
433.000000	0.035630
432.000000	0.035783
431.000000	0.035710
430.000000	0.035800
429.000000	0.035850
428.000000	0.035896
427.000000	0.035974
426.000000	0.035968
425.000000	0.036209
424.000000	0.036200
423.000000	0.036107
422.000000	0.036192
421.000000	0.036299
420.000000	0.036255
419.000000	0.036403
418.000000	0.036482
417.000000	0.036390
416.000000	0.036464
415.000000	0.036498
414.000000	0.036653
413.000000	0.036713
412.000000	0.036702
411.000000	0.036655
410.000000	0.036765
409.000000	0.036694
408.000000	0.036786
407.000000	0.036754
406.000000	0.036879
405.000000	0.036670
404.000000	0.036827
403.000000	0.036966
402.000000	0.036896
401.000000	0.036860
400.000000	0.037071
399.000000	0.036938
398.000000	0.036960
397.000000	0.036988
396.000000	0.037181
395.000000	0.037161
394.000000	0.036940
393.000000	0.036950
392.000000	0.037081
391.000000	0.037148
390.000000	0.037153
389.000000	0.037227
388.000000	0.037215
387.000000	0.037115
386.000000	0.037119
385.000000	0.037331
384.000000	0.037255
383.000000	0.037243
382.000000	0.037255
381.000000	0.037262
380.000000	0.037232
379.000000	0.037362
378.000000	0.037305
377.000000	0.037212
376.000000	0.037280
375.000000	0.037380
374.000000	0.037319
373.000000	0.037407
372.000000	0.037365
371.000000	0.037503
370.000000	0.037617
369.000000	0.037542
368.000000	0.037597
367.000000	0.037746
366.000000	0.037697
365.000000	0.037647
364.000000	0.037762
363.000000	0.037917
362.000000	0.037904
361.000000	0.037898
360.000000	0.038047
359.000000	0.037990
358.000000	0.037980
357.000000	0.038211
356.000000	0.038295
355.000000	0.038282
354.000000	0.038277
353.000000	0.038335
352.000000	0.038494
351.000000	0.038437
350.000000	0.038456
349.000000	0.038524
348.000000	0.038630
347.000000	0.038613
346.000000	0.038798
345.000000	0.039010
344.000000	0.038977
343.000000	0.039061
342.000000	0.039123
341.000000	0.039093
340.000000	0.039209
339.000000	0.039380
338.000000	0.039472
337.000000	0.039484
336.000000	0.039436
335.000000	0.039512
334.000000	0.039655
333.000000	0.039723
332.000000	0.039883
331.000000	0.039965
330.000000	0.040006
329.000000	0.040017
328.000000	0.040162
327.000000	0.040291
326.000000	0.040316
325.000000	0.040377
324.000000	0.040419
323.000000	0.040448
322.000000	0.040656
321.000000	0.040610
320.000000	0.040770
319.000000	0.040905
318.000000	0.040878
317.000000	0.040712
316.000000	0.040726
315.000000	0.040903
314.000000	0.040971
313.000000	0.041009
312.000000	0.041068
311.000000	0.041106
310.000000	0.041282
309.000000	0.041454
308.000000	0.041482
307.000000	0.041590
306.000000	0.041706
305.000000	0.041725
304.000000	0.041888
303.000000	0.042063
302.000000	0.042077
301.000000	0.042122
300.000000	0.042278
299.000000	0.042355
298.000000	0.042398
297.000000	0.042461
296.000000	0.042597
295.000000	0.042754
294.000000	0.042824
293.000000	0.042974
292.000000	0.043147
291.000000	0.043189
290.000000	0.043278
289.000000	0.043461
288.000000	0.043677
287.000000	0.043740
286.000000	0.043826
285.000000	0.044022
284.000000	0.044238
283.000000	0.044319
282.000000	0.044483
281.000000	0.044577
280.000000	0.044529
279.000000	0.044598
278.000000	0.044796
277.000000	0.044975
276.000000	0.045000
275.000000	0.045065
274.000000	0.045287
273.000000	0.045414
272.000000	0.045411
271.000000	0.045625
270.000000	0.045752
269.000000	0.045717
268.000000	0.045828
267.000000	0.046063
266.000000	0.046203
265.000000	0.046248
264.000000	0.046463
263.000000	0.046530
262.000000	0.046673
261.000000	0.046883
260.000000	0.047024
259.000000	0.047181
258.000000	0.047312
257.000000	0.047309
256.000000	0.047571
255.000000	0.047860
254.000000	0.047946
253.000000	0.048073
252.000000	0.048373
251.000000	0.048479
250.000000	0.048654
249.000000	0.049087
248.000000	0.049411
247.000000	0.049507
246.000000	0.049796
245.000000	0.050036
244.000000	0.050396
243.000000	0.050685
242.000000	0.051063
241.000000	0.051431
240.000000	0.051779
239.000000	0.052009
238.000000	0.052435
237.000000	0.052988
236.000000	0.053355
235.000000	0.053877
234.000000	0.054373
233.000000	0.054774
232.000000	0.055122
231.000000	0.055647
230.000000	0.056173
229.000000	0.056717
228.000000	0.057108
227.000000	0.057579
226.000000	0.058173
225.000000	0.058687
224.000000	0.059076
223.000000	0.059796
222.000000	0.060504
221.000000	0.060934
220.000000	0.061703
219.000000	0.062637
218.000000	0.063533
217.000000	0.064216
216.000000	0.065254
215.000000	0.066198
214.000000	0.067081
213.000000	0.068441
212.000000	0.069963
211.000000	0.071448
210.000000	0.072940
209.000000	0.074624
208.000000	0.076550
207.000000	0.078674
206.000000	0.080883
205.000000	0.083410
204.000000	0.086109
203.000000	0.088619
202.000000	0.091829
201.000000	0.095435
200.000000	0.099074
