PE UV       SUBTECH     SPECTRUM    ASCII       PEDS        4.00        
   -1
MQ2_1CM_CELL.Sample.Raw.asc
10/11/12
10:08:25.00
10/11/12
10:08:25.00
Hermanni Kaartokallio

200.000000
1
Lambda 650
650N8121101
PerkinElmer UV WinLab 6.0.2.0723 / 1.61.00 Lambda 650

0
0
2
0
0
UV/VIS
1
1
1
uv/vis/nir detector
0
0
0
0
Fix
 
0
0.24
0
0
0
 
 
 
0
 
0
319.2
0
Front
100
 
 
 
0
0
0
 
0
 
 
 
0
 
 
0
0
0
0
0
 
 
 
 
0
0
#HDR
-1
-1
#GR
nm
A
1.0
0.0
800.000000
-1.000000
601
8
0.099485
0.032843
#DATA
800.000000	0.042326
799.000000	0.042481
798.000000	0.042579
797.000000	0.042617
796.000000	0.042736
795.000000	0.042971
794.000000	0.043060
793.000000	0.043010
792.000000	0.043058
791.000000	0.043158
790.000000	0.043363
789.000000	0.043351
788.000000	0.043423
787.000000	0.043507
786.000000	0.043281
785.000000	0.043374
784.000000	0.043658
783.000000	0.043627
782.000000	0.043676
781.000000	0.043854
780.000000	0.043740
779.000000	0.043767
778.000000	0.043868
777.000000	0.043893
776.000000	0.043970
775.000000	0.043897
774.000000	0.043863
773.000000	0.043977
772.000000	0.044012
771.000000	0.043871
770.000000	0.043896
769.000000	0.043917
768.000000	0.043767
767.000000	0.043801
766.000000	0.043855
765.000000	0.043871
764.000000	0.043752
763.000000	0.043797
762.000000	0.043786
761.000000	0.043798
760.000000	0.043798
759.000000	0.043749
758.000000	0.043749
757.000000	0.043801
756.000000	0.043671
755.000000	0.043862
754.000000	0.043932
753.000000	0.043878
752.000000	0.043933
751.000000	0.044114
750.000000	0.044057
749.000000	0.044125
748.000000	0.044228
747.000000	0.044220
746.000000	0.044245
745.000000	0.044356
744.000000	0.044354
743.000000	0.044414
742.000000	0.044361
741.000000	0.044336
740.000000	0.044321
739.000000	0.044141
738.000000	0.043810
737.000000	0.043734
736.000000	0.043525
735.000000	0.043028
734.000000	0.042617
733.000000	0.042162
732.000000	0.041571
731.000000	0.040988
730.000000	0.040527
729.000000	0.039986
728.000000	0.039481
727.000000	0.039055
726.000000	0.038692
725.000000	0.038379
724.000000	0.038030
723.000000	0.037802
722.000000	0.037575
721.000000	0.037222
720.000000	0.036858
719.000000	0.036699
718.000000	0.036554
717.000000	0.036263
716.000000	0.036035
715.000000	0.035777
714.000000	0.035444
713.000000	0.035229
712.000000	0.035150
711.000000	0.034957
710.000000	0.034690
709.000000	0.034454
708.000000	0.034263
707.000000	0.034115
706.000000	0.033920
705.000000	0.033804
704.000000	0.033673
703.000000	0.033449
702.000000	0.033329
701.000000	0.033281
700.000000	0.033176
699.000000	0.033100
698.000000	0.033057
697.000000	0.033014
696.000000	0.032934
695.000000	0.032878
694.000000	0.032925
693.000000	0.032988
692.000000	0.032966
691.000000	0.032930
690.000000	0.032980
689.000000	0.032984
688.000000	0.032977
687.000000	0.033201
686.000000	0.033385
685.000000	0.033347
684.000000	0.033315
683.000000	0.033424
682.000000	0.033445
681.000000	0.033471
680.000000	0.033658
679.000000	0.033789
678.000000	0.033782
677.000000	0.033812
676.000000	0.033913
675.000000	0.034009
674.000000	0.034062
673.000000	0.034107
672.000000	0.034149
671.000000	0.034230
670.000000	0.034206
669.000000	0.034256
668.000000	0.034347
667.000000	0.034253
666.000000	0.034247
665.000000	0.034266
664.000000	0.034142
663.000000	0.033999
662.000000	0.033980
661.000000	0.033983
660.000000	0.033892
659.000000	0.033797
658.000000	0.033722
657.000000	0.033712
656.000000	0.033586
655.000000	0.033507
654.000000	0.033492
653.000000	0.033467
652.000000	0.033326
651.000000	0.033253
650.000000	0.033371
649.000000	0.033341
648.000000	0.033293
647.000000	0.033295
646.000000	0.033197
645.000000	0.033219
644.000000	0.033196
643.000000	0.033136
642.000000	0.033141
641.000000	0.033078
640.000000	0.033043
639.000000	0.033008
638.000000	0.033051
637.000000	0.033054
636.000000	0.033067
635.000000	0.033110
634.000000	0.032843
633.000000	0.032884
632.000000	0.032948
631.000000	0.032985
630.000000	0.032911
629.000000	0.032915
628.000000	0.032912
627.000000	0.032949
626.000000	0.032967
625.000000	0.033072
624.000000	0.033160
623.000000	0.033096
622.000000	0.033088
621.000000	0.033173
620.000000	0.033251
619.000000	0.033166
618.000000	0.033342
617.000000	0.033506
616.000000	0.033392
615.000000	0.033475
614.000000	0.033675
613.000000	0.033700
612.000000	0.033666
611.000000	0.033690
610.000000	0.033772
609.000000	0.033820
608.000000	0.033722
607.000000	0.033995
606.000000	0.033899
605.000000	0.033948
604.000000	0.033837
603.000000	0.034070
602.000000	0.034046
601.000000	0.033988
600.000000	0.033946
599.000000	0.034088
598.000000	0.033947
597.000000	0.033831
596.000000	0.033843
595.000000	0.033893
594.000000	0.033729
593.000000	0.033779
592.000000	0.033813
591.000000	0.033708
590.000000	0.033692
589.000000	0.033668
588.000000	0.033758
587.000000	0.033677
586.000000	0.033630
585.000000	0.033537
584.000000	0.033554
583.000000	0.033537
582.000000	0.033557
581.000000	0.033632
580.000000	0.033509
579.000000	0.033282
578.000000	0.033332
577.000000	0.033453
576.000000	0.033349
575.000000	0.033287
574.000000	0.033406
573.000000	0.033507
572.000000	0.033303
571.000000	0.033344
570.000000	0.033465
569.000000	0.033348
568.000000	0.033374
567.000000	0.033441
566.000000	0.033459
565.000000	0.033588
564.000000	0.033507
563.000000	0.033565
562.000000	0.033718
561.000000	0.033867
560.000000	0.033964
559.000000	0.033994
558.000000	0.034035
557.000000	0.034041
556.000000	0.034166
555.000000	0.034040
554.000000	0.033936
553.000000	0.034120
552.000000	0.034155
551.000000	0.034149
550.000000	0.034260
549.000000	0.034316
548.000000	0.034324
547.000000	0.034286
546.000000	0.034392
545.000000	0.034496
544.000000	0.034478
543.000000	0.034458
542.000000	0.034504
541.000000	0.034640
540.000000	0.034665
539.000000	0.034646
538.000000	0.034722
537.000000	0.034710
536.000000	0.034633
535.000000	0.034716
534.000000	0.034830
533.000000	0.034775
532.000000	0.034802
531.000000	0.034863
530.000000	0.034886
529.000000	0.034905
528.000000	0.034904
527.000000	0.035024
526.000000	0.035038
525.000000	0.034976
524.000000	0.034982
523.000000	0.035108
522.000000	0.035117
521.000000	0.035088
520.000000	0.035118
519.000000	0.035102
518.000000	0.035095
517.000000	0.035130
516.000000	0.035215
515.000000	0.035276
514.000000	0.035201
513.000000	0.035192
512.000000	0.035272
511.000000	0.035208
510.000000	0.035129
509.000000	0.035273
508.000000	0.035310
507.000000	0.035202
506.000000	0.035179
505.000000	0.035151
504.000000	0.035113
503.000000	0.035091
502.000000	0.035023
501.000000	0.034943
500.000000	0.034862
499.000000	0.034880
498.000000	0.034931
497.000000	0.035000
496.000000	0.034868
495.000000	0.034703
494.000000	0.034712
493.000000	0.034635
492.000000	0.034547
491.000000	0.034526
490.000000	0.034544
489.000000	0.034434
488.000000	0.034316
487.000000	0.034364
486.000000	0.034311
485.000000	0.034226
484.000000	0.034236
483.000000	0.034226
482.000000	0.034093
481.000000	0.034072
480.000000	0.034094
479.000000	0.034106
478.000000	0.034061
477.000000	0.033982
476.000000	0.034031
475.000000	0.034040
474.000000	0.034034
473.000000	0.034049
472.000000	0.034065
471.000000	0.034015
470.000000	0.034053
469.000000	0.034169
468.000000	0.034202
467.000000	0.034211
466.000000	0.034218
465.000000	0.034225
464.000000	0.034233
463.000000	0.034275
462.000000	0.034282
461.000000	0.034342
460.000000	0.034290
459.000000	0.034235
458.000000	0.034388
457.000000	0.034465
456.000000	0.034419
455.000000	0.034495
454.000000	0.034630
453.000000	0.034524
452.000000	0.034516
451.000000	0.034747
450.000000	0.034820
449.000000	0.034770
448.000000	0.034832
447.000000	0.034980
446.000000	0.035042
445.000000	0.034948
444.000000	0.035055
443.000000	0.035174
442.000000	0.035067
441.000000	0.034989
440.000000	0.035177
439.000000	0.035279
438.000000	0.035339
437.000000	0.035344
436.000000	0.035464
435.000000	0.035330
434.000000	0.035370
433.000000	0.035544
432.000000	0.035686
431.000000	0.035628
430.000000	0.035680
429.000000	0.035838
428.000000	0.035884
427.000000	0.035940
426.000000	0.035935
425.000000	0.036115
424.000000	0.036194
423.000000	0.036065
422.000000	0.036088
421.000000	0.036253
420.000000	0.036249
419.000000	0.036374
418.000000	0.036438
417.000000	0.036432
416.000000	0.036434
415.000000	0.036514
414.000000	0.036745
413.000000	0.036717
412.000000	0.036762
411.000000	0.036810
410.000000	0.036769
409.000000	0.036837
408.000000	0.036845
407.000000	0.036948
406.000000	0.037075
405.000000	0.036989
404.000000	0.036952
403.000000	0.037119
402.000000	0.037070
401.000000	0.037105
400.000000	0.037140
399.000000	0.037128
398.000000	0.037070
397.000000	0.037082
396.000000	0.037321
395.000000	0.037364
394.000000	0.037260
393.000000	0.037161
392.000000	0.037214
391.000000	0.037305
390.000000	0.037308
389.000000	0.037423
388.000000	0.037492
387.000000	0.037380
386.000000	0.037198
385.000000	0.037527
384.000000	0.037395
383.000000	0.037397
382.000000	0.037430
381.000000	0.037499
380.000000	0.037362
379.000000	0.037434
378.000000	0.037430
377.000000	0.037282
376.000000	0.037236
375.000000	0.037368
374.000000	0.037384
373.000000	0.037389
372.000000	0.037438
371.000000	0.037474
370.000000	0.037638
369.000000	0.037600
368.000000	0.037567
367.000000	0.037833
366.000000	0.037776
365.000000	0.037697
364.000000	0.037733
363.000000	0.038003
362.000000	0.038002
361.000000	0.037916
360.000000	0.038091
359.000000	0.038108
358.000000	0.037923
357.000000	0.038214
356.000000	0.038366
355.000000	0.038319
354.000000	0.038263
353.000000	0.038341
352.000000	0.038509
351.000000	0.038591
350.000000	0.038465
349.000000	0.038745
348.000000	0.038892
347.000000	0.038648
346.000000	0.038879
345.000000	0.039059
344.000000	0.038997
343.000000	0.039085
342.000000	0.039142
341.000000	0.039169
340.000000	0.039274
339.000000	0.039355
338.000000	0.039512
337.000000	0.039580
336.000000	0.039525
335.000000	0.039582
334.000000	0.039742
333.000000	0.039816
332.000000	0.039890
331.000000	0.039977
330.000000	0.039989
329.000000	0.039996
328.000000	0.040102
327.000000	0.040319
326.000000	0.040376
325.000000	0.040469
324.000000	0.040518
323.000000	0.040609
322.000000	0.040765
321.000000	0.040714
320.000000	0.040857
319.000000	0.040949
318.000000	0.040868
317.000000	0.040748
316.000000	0.040791
315.000000	0.040882
314.000000	0.041031
313.000000	0.041097
312.000000	0.040961
311.000000	0.041064
310.000000	0.041326
309.000000	0.041372
308.000000	0.041383
307.000000	0.041564
306.000000	0.041684
305.000000	0.041664
304.000000	0.041714
303.000000	0.041869
302.000000	0.041964
301.000000	0.042053
300.000000	0.042161
299.000000	0.042226
298.000000	0.042294
297.000000	0.042417
296.000000	0.042554
295.000000	0.042680
294.000000	0.042750
293.000000	0.042926
292.000000	0.043137
291.000000	0.043190
290.000000	0.043235
289.000000	0.043431
288.000000	0.043679
287.000000	0.043733
286.000000	0.043831
285.000000	0.044093
284.000000	0.044292
283.000000	0.044325
282.000000	0.044469
281.000000	0.044609
280.000000	0.044637
279.000000	0.044628
278.000000	0.044740
277.000000	0.044964
276.000000	0.045003
275.000000	0.045074
274.000000	0.045309
273.000000	0.045406
272.000000	0.045435
271.000000	0.045662
270.000000	0.045802
269.000000	0.045741
268.000000	0.045813
267.000000	0.046004
266.000000	0.046210
265.000000	0.046310
264.000000	0.046438
263.000000	0.046528
262.000000	0.046670
261.000000	0.046887
260.000000	0.047053
259.000000	0.047201
258.000000	0.047309
257.000000	0.047355
256.000000	0.047624
255.000000	0.047888
254.000000	0.048004
253.000000	0.048149
252.000000	0.048503
251.000000	0.048513
250.000000	0.048688
249.000000	0.049120
248.000000	0.049446
247.000000	0.049587
246.000000	0.049881
245.000000	0.050153
244.000000	0.050397
243.000000	0.050781
242.000000	0.051125
241.000000	0.051535
240.000000	0.051850
239.000000	0.052034
238.000000	0.052574
237.000000	0.053083
236.000000	0.053473
235.000000	0.053855
234.000000	0.054446
233.000000	0.054732
232.000000	0.055155
231.000000	0.055732
230.000000	0.056408
229.000000	0.056806
228.000000	0.057135
227.000000	0.057702
226.000000	0.058410
225.000000	0.058910
224.000000	0.059328
223.000000	0.059975
222.000000	0.060690
221.000000	0.061128
220.000000	0.061888
219.000000	0.062935
218.000000	0.063717
217.000000	0.064548
216.000000	0.065556
215.000000	0.066558
214.000000	0.067556
213.000000	0.068840
212.000000	0.070382
211.000000	0.071744
210.000000	0.073372
209.000000	0.074962
208.000000	0.077174
207.000000	0.078936
206.000000	0.081315
205.000000	0.083714
204.000000	0.086533
203.000000	0.089309
202.000000	0.092371
201.000000	0.095720
200.000000	0.099485
