PE UV       SUBTECH     SPECTRUM    ASCII       PEDS        4.00        	
-1	
TV305A021110.Sample.Raw.asc	
10.11.2012	
12:58:28.00	
10.11.2012	
12:58:28.00	
Hermanni Kaartokallio	
	
200.000000	
1	
Lambda 650	
650N8121101	
PerkinElmer UV WinLab 6.0.2.0723 / 1.61.00 Lambda 650	
	
0	
0	
2	
0	
0	
UV/VIS	
1	
1	
1	
uv/vis/nir detector	
0	
0	
0	
0	
Fix	
 	
0	
0.24	
0	
0	
0	
 	
 	
 	
0	
 	
0	
319.2	
0	
Front	
100	
 	
 	
 	
0	
0	
0	
 	
0	
 	
 	
 	
0	
 	
 	
0	
0	
0	
0	
0	
 	
 	
 	
 	
0	
0	
#HDR	
-1	
-1	
#GR	
nm	
A	
1.0	
0.0	
800.000000	
-1.000000	
601	
8	
3.725262	
0.032365	
#DATA	
800.000000	0.077828
799.000000	0.078293
798.000000	0.078968
797.000000	0.079178
796.000000	0.079427
795.000000	0.079902
794.000000	0.080356
793.000000	0.080814
792.000000	0.081398
791.000000	0.081678
790.000000	0.082094
789.000000	0.082469
788.000000	0.082898
787.000000	0.083309
786.000000	0.083761
785.000000	0.084023
784.000000	0.084459
783.000000	0.084829
782.000000	0.085197
781.000000	0.085646
780.000000	0.086063
779.000000	0.086227
778.000000	0.086428
777.000000	0.086831
776.000000	0.087106
775.000000	0.087357
774.000000	0.087719
773.000000	0.087915
772.000000	0.087964
771.000000	0.088148
770.000000	0.088366
769.000000	0.088537
768.000000	0.088690
767.000000	0.088797
766.000000	0.088889
765.000000	0.088946
764.000000	0.088874
763.000000	0.089063
762.000000	0.089140
761.000000	0.089141
760.000000	0.089157
759.000000	0.089145
758.000000	0.089058
757.000000	0.089166
756.000000	0.089242
755.000000	0.089276
754.000000	0.089226
753.000000	0.089125
752.000000	0.089149
751.000000	0.089227
750.000000	0.089283
749.000000	0.089249
748.000000	0.089130
747.000000	0.088998
746.000000	0.088904
745.000000	0.088961
744.000000	0.089007
743.000000	0.088825
742.000000	0.088457
741.000000	0.088179
740.000000	0.087819
739.000000	0.087258
738.000000	0.086482
737.000000	0.085388
736.000000	0.084034
735.000000	0.082316
734.000000	0.080398
733.000000	0.078300
732.000000	0.075962
731.000000	0.073353
730.000000	0.070774
729.000000	0.068298
728.000000	0.066054
727.000000	0.064167
726.000000	0.062505
725.000000	0.060930
724.000000	0.059444
723.000000	0.058163
722.000000	0.056976
721.000000	0.055805
720.000000	0.054606
719.000000	0.053339
718.000000	0.052146
717.000000	0.051034
716.000000	0.050001
715.000000	0.049075
714.000000	0.048097
713.000000	0.047115
712.000000	0.046293
711.000000	0.045510
710.000000	0.044693
709.000000	0.044045
708.000000	0.043493
707.000000	0.042872
706.000000	0.042290
705.000000	0.041826
704.000000	0.041377
703.000000	0.040965
702.000000	0.040683
701.000000	0.040323
700.000000	0.039944
699.000000	0.039621
698.000000	0.039291
697.000000	0.039138
696.000000	0.038972
695.000000	0.038685
694.000000	0.038527
693.000000	0.038477
692.000000	0.038332
691.000000	0.038305
690.000000	0.038298
689.000000	0.038145
688.000000	0.038128
687.000000	0.038292
686.000000	0.038308
685.000000	0.038140
684.000000	0.038105
683.000000	0.038222
682.000000	0.038308
681.000000	0.038342
680.000000	0.038370
679.000000	0.038456
678.000000	0.038450
677.000000	0.038456
676.000000	0.038650
675.000000	0.038751
674.000000	0.038718
673.000000	0.038725
672.000000	0.038739
671.000000	0.038774
670.000000	0.038881
669.000000	0.038996
668.000000	0.038986
667.000000	0.038874
666.000000	0.038886
665.000000	0.038949
664.000000	0.038958
663.000000	0.038884
662.000000	0.038821
661.000000	0.038774
660.000000	0.038699
659.000000	0.038537
658.000000	0.038507
657.000000	0.038444
656.000000	0.038109
655.000000	0.037848
654.000000	0.037768
653.000000	0.037643
652.000000	0.037579
651.000000	0.037468
650.000000	0.037429
649.000000	0.037306
648.000000	0.037174
647.000000	0.037108
646.000000	0.037194
645.000000	0.037034
644.000000	0.036828
643.000000	0.036800
642.000000	0.036707
641.000000	0.036508
640.000000	0.036585
639.000000	0.036509
638.000000	0.036397
637.000000	0.036236
636.000000	0.036226
635.000000	0.036171
634.000000	0.036065
633.000000	0.035953
632.000000	0.035938
631.000000	0.035875
630.000000	0.035676
629.000000	0.035593
628.000000	0.035785
627.000000	0.035753
626.000000	0.035472
625.000000	0.035459
624.000000	0.035508
623.000000	0.035412
622.000000	0.035494
621.000000	0.035484
620.000000	0.035435
619.000000	0.035213
618.000000	0.035329
617.000000	0.035428
616.000000	0.035499
615.000000	0.035311
614.000000	0.035372
613.000000	0.035396
612.000000	0.035286
611.000000	0.035235
610.000000	0.035522
609.000000	0.035399
608.000000	0.035159
607.000000	0.035244
606.000000	0.035262
605.000000	0.035137
604.000000	0.035178
603.000000	0.035103
602.000000	0.035050
601.000000	0.034743
600.000000	0.034499
599.000000	0.034428
598.000000	0.034111
597.000000	0.033943
596.000000	0.033645
595.000000	0.033482
594.000000	0.033234
593.000000	0.033017
592.000000	0.033023
591.000000	0.033152
590.000000	0.032935
589.000000	0.032787
588.000000	0.032853
587.000000	0.032759
586.000000	0.032691
585.000000	0.032713
584.000000	0.032643
583.000000	0.032474
582.000000	0.032446
581.000000	0.032518
580.000000	0.032515
579.000000	0.032542
578.000000	0.032440
577.000000	0.032483
576.000000	0.032428
575.000000	0.032365
574.000000	0.032483
573.000000	0.032652
572.000000	0.032549
571.000000	0.032460
570.000000	0.032527
569.000000	0.032628
568.000000	0.032668
567.000000	0.032781
566.000000	0.032864
565.000000	0.032873
564.000000	0.032856
563.000000	0.032868
562.000000	0.033017
561.000000	0.032987
560.000000	0.033252
559.000000	0.033262
558.000000	0.033303
557.000000	0.033302
556.000000	0.033389
555.000000	0.033605
554.000000	0.033648
553.000000	0.033664
552.000000	0.033687
551.000000	0.033794
550.000000	0.033860
549.000000	0.033988
548.000000	0.034200
547.000000	0.034066
546.000000	0.034064
545.000000	0.034258
544.000000	0.034312
543.000000	0.034280
542.000000	0.034415
541.000000	0.034567
540.000000	0.034572
539.000000	0.034573
538.000000	0.034644
537.000000	0.034716
536.000000	0.034803
535.000000	0.034788
534.000000	0.034895
533.000000	0.034955
532.000000	0.034967
531.000000	0.035075
530.000000	0.035275
529.000000	0.035280
528.000000	0.035127
527.000000	0.035244
526.000000	0.035393
525.000000	0.035388
524.000000	0.035498
523.000000	0.035570
522.000000	0.035651
521.000000	0.035652
520.000000	0.035706
519.000000	0.035898
518.000000	0.036010
517.000000	0.035948
516.000000	0.035981
515.000000	0.036066
514.000000	0.036053
513.000000	0.036167
512.000000	0.036295
511.000000	0.036200
510.000000	0.036154
509.000000	0.036205
508.000000	0.036274
507.000000	0.036353
506.000000	0.036431
505.000000	0.036448
504.000000	0.036418
503.000000	0.036423
502.000000	0.036492
501.000000	0.036698
500.000000	0.036828
499.000000	0.036722
498.000000	0.036726
497.000000	0.036843
496.000000	0.036872
495.000000	0.036956
494.000000	0.037133
493.000000	0.037146
492.000000	0.037142
491.000000	0.037205
490.000000	0.037294
489.000000	0.037406
488.000000	0.037424
487.000000	0.037434
486.000000	0.037447
485.000000	0.037468
484.000000	0.037503
483.000000	0.037679
482.000000	0.037740
481.000000	0.037687
480.000000	0.037711
479.000000	0.037830
478.000000	0.037897
477.000000	0.038009
476.000000	0.038137
475.000000	0.038186
474.000000	0.038275
473.000000	0.038316
472.000000	0.038399
471.000000	0.038599
470.000000	0.038690
469.000000	0.038738
468.000000	0.038890
467.000000	0.038907
466.000000	0.038988
465.000000	0.039228
464.000000	0.039417
463.000000	0.039430
462.000000	0.039437
461.000000	0.039600
460.000000	0.039751
459.000000	0.039901
458.000000	0.040098
457.000000	0.040189
456.000000	0.040218
455.000000	0.040317
454.000000	0.040515
453.000000	0.040784
452.000000	0.040828
451.000000	0.040934
450.000000	0.041148
449.000000	0.041217
448.000000	0.041356
447.000000	0.041623
446.000000	0.041751
445.000000	0.041820
444.000000	0.041985
443.000000	0.042185
442.000000	0.042391
441.000000	0.042593
440.000000	0.042701
439.000000	0.042913
438.000000	0.043139
437.000000	0.043248
436.000000	0.043497
435.000000	0.043804
434.000000	0.043954
433.000000	0.044011
432.000000	0.044333
431.000000	0.044582
430.000000	0.044726
429.000000	0.045068
428.000000	0.045272
427.000000	0.045556
426.000000	0.045671
425.000000	0.045933
424.000000	0.046260
423.000000	0.046598
422.000000	0.046823
421.000000	0.046960
420.000000	0.047286
419.000000	0.047544
418.000000	0.047767
417.000000	0.048213
416.000000	0.048531
415.000000	0.048600
414.000000	0.048908
413.000000	0.049305
412.000000	0.049586
411.000000	0.050012
410.000000	0.050278
409.000000	0.050565
408.000000	0.050739
407.000000	0.051029
406.000000	0.051506
405.000000	0.051946
404.000000	0.052207
403.000000	0.052430
402.000000	0.052888
401.000000	0.053252
400.000000	0.053475
399.000000	0.054091
398.000000	0.054386
397.000000	0.054589
396.000000	0.055068
395.000000	0.055587
394.000000	0.055909
393.000000	0.056353
392.000000	0.056740
391.000000	0.057270
390.000000	0.057671
389.000000	0.058024
388.000000	0.058517
387.000000	0.059243
386.000000	0.059464
385.000000	0.059968
384.000000	0.060458
383.000000	0.061073
382.000000	0.061533
381.000000	0.062241
380.000000	0.062709
379.000000	0.063206
378.000000	0.063734
377.000000	0.064405
376.000000	0.064987
375.000000	0.065438
374.000000	0.066069
373.000000	0.066774
372.000000	0.067446
371.000000	0.068274
370.000000	0.068923
369.000000	0.069501
368.000000	0.070080
367.000000	0.070924
366.000000	0.071738
365.000000	0.072570
364.000000	0.073119
363.000000	0.073992
362.000000	0.074830
361.000000	0.075513
360.000000	0.076503
359.000000	0.077532
358.000000	0.078231
357.000000	0.079004
356.000000	0.079968
355.000000	0.080903
354.000000	0.081877
353.000000	0.082901
352.000000	0.083765
351.000000	0.084641
350.000000	0.085582
349.000000	0.086647
348.000000	0.087911
347.000000	0.089047
346.000000	0.090031
345.000000	0.091197
344.000000	0.092371
343.000000	0.093522
342.000000	0.094700
341.000000	0.096047
340.000000	0.097270
339.000000	0.098486
338.000000	0.099848
337.000000	0.101287
336.000000	0.102710
335.000000	0.104172
334.000000	0.105537
333.000000	0.107090
332.000000	0.108614
331.000000	0.110125
330.000000	0.111844
329.000000	0.113626
328.000000	0.115221
327.000000	0.116939
326.000000	0.118787
325.000000	0.120675
324.000000	0.122561
323.000000	0.124554
322.000000	0.126609
321.000000	0.128506
320.000000	0.130603
319.000000	0.132813
318.000000	0.134813
317.000000	0.136761
316.000000	0.139208
315.000000	0.141565
314.000000	0.144050
313.000000	0.146679
312.000000	0.149374
311.000000	0.152181
310.000000	0.155150
309.000000	0.158019
308.000000	0.160983
307.000000	0.164205
306.000000	0.167548
305.000000	0.171029
304.000000	0.174543
303.000000	0.178087
302.000000	0.181902
301.000000	0.185850
300.000000	0.189932
299.000000	0.194238
298.000000	0.198704
297.000000	0.203147
296.000000	0.207776
295.000000	0.212760
294.000000	0.217882
293.000000	0.223215
292.000000	0.228660
291.000000	0.234147
290.000000	0.239896
289.000000	0.245718
288.000000	0.251625
287.000000	0.257689
286.000000	0.263696
285.000000	0.269783
284.000000	0.276039
283.000000	0.282290
282.000000	0.288563
281.000000	0.294901
280.000000	0.301146
279.000000	0.307318
278.000000	0.313673
277.000000	0.320132
276.000000	0.326550
275.000000	0.333181
274.000000	0.339747
273.000000	0.346252
272.000000	0.352662
271.000000	0.359119
270.000000	0.365485
269.000000	0.371899
268.000000	0.378117
267.000000	0.384072
266.000000	0.390121
265.000000	0.396132
264.000000	0.401998
263.000000	0.407763
262.000000	0.413352
261.000000	0.418814
260.000000	0.424083
259.000000	0.429253
258.000000	0.434327
257.000000	0.439306
256.000000	0.444119
255.000000	0.448868
254.000000	0.453585
253.000000	0.458343
252.000000	0.463127
251.000000	0.468141
250.000000	0.473113
249.000000	0.478313
248.000000	0.483664
247.000000	0.489342
246.000000	0.495422
245.000000	0.501871
244.000000	0.508566
243.000000	0.516035
242.000000	0.523812
241.000000	0.531931
240.000000	0.540698
239.000000	0.550329
238.000000	0.560424
237.000000	0.571016
236.000000	0.582196
235.000000	0.594057
234.000000	0.606532
233.000000	0.619754
232.000000	0.633865
231.000000	0.648591
230.000000	0.664189
229.000000	0.680805
228.000000	0.698584
227.000000	0.718019
226.000000	0.739332
225.000000	0.763167
224.000000	0.789902
223.000000	0.820673
222.000000	0.856139
221.000000	0.898425
220.000000	0.948360
219.000000	1.008561
218.000000	1.081197
217.000000	1.169469
216.000000	1.279037
215.000000	1.412072
214.000000	1.575547
213.000000	1.774722
212.000000	2.012597
211.000000	2.295164
210.000000	2.625022
209.000000	2.986154
208.000000	3.338292
207.000000	3.569352
206.000000	3.708058
205.000000	3.725262
204.000000	3.669484
203.000000	3.605133
202.000000	3.541600
201.000000	3.485255
200.000000	3.470002
