PE UV       SUBTECH     SPECTRUM    ASCII       PEDS        4.00        	
-1	
TV305B021110.Sample.Raw.asc	
10.11.2012	
12:17:24.00	
10.11.2012	
12:17:24.00	
Hermanni Kaartokallio	
	
200.000000	
1	
Lambda 650	
650N8121101	
PerkinElmer UV WinLab 6.0.2.0723 / 1.61.00 Lambda 650	
	
0	
0	
2	
0	
0	
UV/VIS	
1	
1	
1	
uv/vis/nir detector	
0	
0	
0	
0	
Fix	
 	
0	
0.24	
0	
0	
0	
 	
 	
 	
0	
 	
0	
319.2	
0	
Front	
100	
 	
 	
 	
0	
0	
0	
 	
0	
 	
 	
 	
0	
 	
 	
0	
0	
0	
0	
0	
 	
 	
 	
 	
0	
0	
#HDR	
-1	
-1	
#GR	
nm	
A	
1.0	
0.0	
800.000000	
-1.000000	
601	
8	
3.696598	
0.032449	
#DATA	
800.000000	0.078118
799.000000	0.078429
798.000000	0.079078
797.000000	0.079468
796.000000	0.079751
795.000000	0.080121
794.000000	0.080573
793.000000	0.081091
792.000000	0.081432
791.000000	0.081924
790.000000	0.082455
789.000000	0.082742
788.000000	0.083194
787.000000	0.083650
786.000000	0.083976
785.000000	0.084370
784.000000	0.084834
783.000000	0.085235
782.000000	0.085611
781.000000	0.085971
780.000000	0.086231
779.000000	0.086632
778.000000	0.086839
777.000000	0.087157
776.000000	0.087470
775.000000	0.087742
774.000000	0.087846
773.000000	0.088207
772.000000	0.088438
771.000000	0.088574
770.000000	0.088595
769.000000	0.088755
768.000000	0.088897
767.000000	0.089055
766.000000	0.089096
765.000000	0.089239
764.000000	0.089247
763.000000	0.089245
762.000000	0.089200
761.000000	0.089372
760.000000	0.089377
759.000000	0.089214
758.000000	0.089200
757.000000	0.089311
756.000000	0.089266
755.000000	0.089220
754.000000	0.089249
753.000000	0.089218
752.000000	0.089156
751.000000	0.089176
750.000000	0.089282
749.000000	0.089278
748.000000	0.089065
747.000000	0.088940
746.000000	0.088977
745.000000	0.088924
744.000000	0.088792
743.000000	0.088766
742.000000	0.088453
741.000000	0.088125
740.000000	0.087711
739.000000	0.087121
738.000000	0.086242
737.000000	0.085229
736.000000	0.083854
735.000000	0.082257
734.000000	0.080328
733.000000	0.078079
732.000000	0.075797
731.000000	0.073328
730.000000	0.070706
729.000000	0.068273
728.000000	0.066096
727.000000	0.064185
726.000000	0.062506
725.000000	0.061086
724.000000	0.059686
723.000000	0.058244
722.000000	0.057019
721.000000	0.055847
720.000000	0.054546
719.000000	0.053309
718.000000	0.052172
717.000000	0.051103
716.000000	0.050045
715.000000	0.048966
714.000000	0.048026
713.000000	0.047197
712.000000	0.046287
711.000000	0.045441
710.000000	0.044688
709.000000	0.044004
708.000000	0.043354
707.000000	0.042814
706.000000	0.042307
705.000000	0.041844
704.000000	0.041378
703.000000	0.040920
702.000000	0.040611
701.000000	0.040296
700.000000	0.039949
699.000000	0.039688
698.000000	0.039401
697.000000	0.039079
696.000000	0.038880
695.000000	0.038751
694.000000	0.038558
693.000000	0.038441
692.000000	0.038376
691.000000	0.038266
690.000000	0.038216
689.000000	0.038172
688.000000	0.038061
687.000000	0.038167
686.000000	0.038256
685.000000	0.038185
684.000000	0.038129
683.000000	0.038131
682.000000	0.038136
681.000000	0.038247
680.000000	0.038312
679.000000	0.038336
678.000000	0.038355
677.000000	0.038430
676.000000	0.038484
675.000000	0.038597
674.000000	0.038689
673.000000	0.038697
672.000000	0.038673
671.000000	0.038734
670.000000	0.038743
669.000000	0.038770
668.000000	0.038823
667.000000	0.038806
666.000000	0.038897
665.000000	0.038890
664.000000	0.038835
663.000000	0.038815
662.000000	0.038798
661.000000	0.038743
660.000000	0.038645
659.000000	0.038558
658.000000	0.038389
657.000000	0.038319
656.000000	0.038195
655.000000	0.037939
654.000000	0.037780
653.000000	0.037603
652.000000	0.037465
651.000000	0.037464
650.000000	0.037421
649.000000	0.037311
648.000000	0.037208
647.000000	0.037092
646.000000	0.037083
645.000000	0.036985
644.000000	0.036826
643.000000	0.036765
642.000000	0.036627
641.000000	0.036563
640.000000	0.036547
639.000000	0.036460
638.000000	0.036440
637.000000	0.036301
636.000000	0.036242
635.000000	0.036156
634.000000	0.035904
633.000000	0.035952
632.000000	0.035933
631.000000	0.035916
630.000000	0.035848
629.000000	0.035833
628.000000	0.035753
627.000000	0.035821
626.000000	0.035719
625.000000	0.035659
624.000000	0.035593
623.000000	0.035491
622.000000	0.035511
621.000000	0.035517
620.000000	0.035468
619.000000	0.035427
618.000000	0.035490
617.000000	0.035506
616.000000	0.035353
615.000000	0.035436
614.000000	0.035564
613.000000	0.035505
612.000000	0.035407
611.000000	0.035408
610.000000	0.035408
609.000000	0.035407
608.000000	0.035326
607.000000	0.035377
606.000000	0.035303
605.000000	0.035281
604.000000	0.035175
603.000000	0.035230
602.000000	0.035113
601.000000	0.034819
600.000000	0.034653
599.000000	0.034418
598.000000	0.034179
597.000000	0.033911
596.000000	0.033813
595.000000	0.033516
594.000000	0.033250
593.000000	0.033171
592.000000	0.033081
591.000000	0.032890
590.000000	0.032726
589.000000	0.033027
588.000000	0.032844
587.000000	0.032758
586.000000	0.032849
585.000000	0.032747
584.000000	0.032535
583.000000	0.032531
582.000000	0.032564
581.000000	0.032530
580.000000	0.032518
579.000000	0.032449
578.000000	0.032511
577.000000	0.032673
576.000000	0.032619
575.000000	0.032565
574.000000	0.032632
573.000000	0.032465
572.000000	0.032496
571.000000	0.032552
570.000000	0.032621
569.000000	0.032689
568.000000	0.032849
567.000000	0.032739
566.000000	0.032874
565.000000	0.032971
564.000000	0.033021
563.000000	0.033085
562.000000	0.033105
561.000000	0.033052
560.000000	0.033127
559.000000	0.033161
558.000000	0.033238
557.000000	0.033350
556.000000	0.033405
555.000000	0.033488
554.000000	0.033485
553.000000	0.033657
552.000000	0.033678
551.000000	0.033687
550.000000	0.033828
549.000000	0.033908
548.000000	0.034012
547.000000	0.033995
546.000000	0.034016
545.000000	0.034156
544.000000	0.034147
543.000000	0.034161
542.000000	0.034234
541.000000	0.034528
540.000000	0.034557
539.000000	0.034511
538.000000	0.034648
537.000000	0.034672
536.000000	0.034573
535.000000	0.034736
534.000000	0.034978
533.000000	0.034927
532.000000	0.034948
531.000000	0.035059
530.000000	0.035061
529.000000	0.035070
528.000000	0.035146
527.000000	0.035175
526.000000	0.035279
525.000000	0.035347
524.000000	0.035298
523.000000	0.035389
522.000000	0.035492
521.000000	0.035576
520.000000	0.035714
519.000000	0.035790
518.000000	0.035729
517.000000	0.035769
516.000000	0.035922
515.000000	0.035972
514.000000	0.035997
513.000000	0.036103
512.000000	0.036063
511.000000	0.036020
510.000000	0.036090
509.000000	0.036095
508.000000	0.036162
507.000000	0.036190
506.000000	0.036211
505.000000	0.036253
504.000000	0.036293
503.000000	0.036330
502.000000	0.036479
501.000000	0.036604
500.000000	0.036504
499.000000	0.036542
498.000000	0.036712
497.000000	0.036839
496.000000	0.036878
495.000000	0.036953
494.000000	0.036997
493.000000	0.036942
492.000000	0.037132
491.000000	0.037283
490.000000	0.037293
489.000000	0.037281
488.000000	0.037312
487.000000	0.037505
486.000000	0.037671
485.000000	0.037756
484.000000	0.037660
483.000000	0.037695
482.000000	0.037744
481.000000	0.037736
480.000000	0.037752
479.000000	0.037829
478.000000	0.037902
477.000000	0.037999
476.000000	0.038019
475.000000	0.038121
474.000000	0.038202
473.000000	0.038300
472.000000	0.038425
471.000000	0.038406
470.000000	0.038456
469.000000	0.038687
468.000000	0.038827
467.000000	0.038798
466.000000	0.038998
465.000000	0.039143
464.000000	0.039206
463.000000	0.039342
462.000000	0.039461
461.000000	0.039672
460.000000	0.039825
459.000000	0.039809
458.000000	0.039930
457.000000	0.040124
456.000000	0.040212
455.000000	0.040464
454.000000	0.040709
453.000000	0.040617
452.000000	0.040743
451.000000	0.041059
450.000000	0.041268
449.000000	0.041340
448.000000	0.041497
447.000000	0.041626
446.000000	0.041777
445.000000	0.041941
444.000000	0.042377
443.000000	0.042515
442.000000	0.042562
441.000000	0.042623
440.000000	0.042789
439.000000	0.043151
438.000000	0.043430
437.000000	0.043603
436.000000	0.043853
435.000000	0.043813
434.000000	0.043962
433.000000	0.044268
432.000000	0.044763
431.000000	0.044886
430.000000	0.045085
429.000000	0.045147
428.000000	0.045361
427.000000	0.045711
426.000000	0.046060
425.000000	0.046414
424.000000	0.046601
423.000000	0.046579
422.000000	0.046811
421.000000	0.047258
420.000000	0.047618
419.000000	0.047953
418.000000	0.048252
417.000000	0.048361
416.000000	0.048589
415.000000	0.048896
414.000000	0.049444
413.000000	0.049741
412.000000	0.049916
411.000000	0.050124
410.000000	0.050403
409.000000	0.050811
408.000000	0.051197
407.000000	0.051538
406.000000	0.051918
405.000000	0.051993
404.000000	0.052347
403.000000	0.052887
402.000000	0.053341
401.000000	0.053546
400.000000	0.053868
399.000000	0.054210
398.000000	0.054519
397.000000	0.054938
396.000000	0.055504
395.000000	0.056112
394.000000	0.056270
393.000000	0.056503
392.000000	0.057030
391.000000	0.057549
390.000000	0.057990
389.000000	0.058451
388.000000	0.059179
387.000000	0.059351
386.000000	0.059683
385.000000	0.060459
384.000000	0.060980
383.000000	0.061518
382.000000	0.061940
381.000000	0.062437
380.000000	0.062982
379.000000	0.063575
378.000000	0.064249
377.000000	0.064648
376.000000	0.065258
375.000000	0.065875
374.000000	0.066519
373.000000	0.067239
372.000000	0.067791
371.000000	0.068526
370.000000	0.069357
369.000000	0.069980
368.000000	0.070542
367.000000	0.071455
366.000000	0.072168
365.000000	0.072812
364.000000	0.073621
363.000000	0.074531
362.000000	0.075306
361.000000	0.075952
360.000000	0.076957
359.000000	0.077874
358.000000	0.078643
357.000000	0.079480
356.000000	0.080544
355.000000	0.081435
354.000000	0.082263
353.000000	0.083266
352.000000	0.084368
351.000000	0.085270
350.000000	0.086206
349.000000	0.087371
348.000000	0.088514
347.000000	0.089461
346.000000	0.090600
345.000000	0.091893
344.000000	0.093063
343.000000	0.094179
342.000000	0.095306
341.000000	0.096613
340.000000	0.097876
339.000000	0.099155
338.000000	0.100626
337.000000	0.101938
336.000000	0.103209
335.000000	0.104582
334.000000	0.106207
333.000000	0.107737
332.000000	0.109245
331.000000	0.110870
330.000000	0.112475
329.000000	0.114168
328.000000	0.115959
327.000000	0.117717
326.000000	0.119542
325.000000	0.121372
324.000000	0.123194
323.000000	0.125157
322.000000	0.127385
321.000000	0.129236
320.000000	0.131449
319.000000	0.133717
318.000000	0.135799
317.000000	0.137725
316.000000	0.139965
315.000000	0.142471
314.000000	0.145042
313.000000	0.147674
312.000000	0.150320
311.000000	0.153090
310.000000	0.156141
309.000000	0.159156
308.000000	0.162071
307.000000	0.165339
306.000000	0.168715
305.000000	0.172027
304.000000	0.175593
303.000000	0.179405
302.000000	0.183217
301.000000	0.187045
300.000000	0.191150
299.000000	0.195547
298.000000	0.199922
297.000000	0.204445
296.000000	0.209261
295.000000	0.214267
294.000000	0.219316
293.000000	0.224639
292.000000	0.230264
291.000000	0.235755
290.000000	0.241287
289.000000	0.247139
288.000000	0.253245
287.000000	0.259258
286.000000	0.265333
285.000000	0.271602
284.000000	0.277905
283.000000	0.284100
282.000000	0.290344
281.000000	0.296760
280.000000	0.302996
279.000000	0.309287
278.000000	0.315732
277.000000	0.322281
276.000000	0.328719
275.000000	0.335085
274.000000	0.341653
273.000000	0.348346
272.000000	0.354902
271.000000	0.361364
270.000000	0.367829
269.000000	0.374131
268.000000	0.380318
267.000000	0.386628
266.000000	0.392802
265.000000	0.398760
264.000000	0.404567
263.000000	0.410246
262.000000	0.415973
261.000000	0.421411
260.000000	0.426710
259.000000	0.431994
258.000000	0.437100
257.000000	0.441867
256.000000	0.446845
255.000000	0.451754
254.000000	0.456471
253.000000	0.461207
252.000000	0.466173
251.000000	0.471028
250.000000	0.476019
249.000000	0.481267
248.000000	0.486793
247.000000	0.492410
246.000000	0.498437
245.000000	0.504890
244.000000	0.511908
243.000000	0.519326
242.000000	0.527196
241.000000	0.535654
240.000000	0.544649
239.000000	0.553887
238.000000	0.563905
237.000000	0.574803
236.000000	0.586222
235.000000	0.598142
234.000000	0.610863
233.000000	0.624092
232.000000	0.638236
231.000000	0.653195
230.000000	0.669073
229.000000	0.685904
228.000000	0.703693
227.000000	0.723136
226.000000	0.744635
225.000000	0.768860
224.000000	0.795590
223.000000	0.826724
222.000000	0.862757
221.000000	0.905012
220.000000	0.954797
219.000000	1.015664
218.000000	1.088998
217.000000	1.177603
216.000000	1.287106
215.000000	1.421630
214.000000	1.584941
213.000000	1.784621
212.000000	2.022026
211.000000	2.309940
210.000000	2.637136
209.000000	2.990599
208.000000	3.321717
207.000000	3.623259
206.000000	3.696598
205.000000	3.598518
204.000000	3.636846
203.000000	3.612495
202.000000	3.512687
201.000000	3.515218
200.000000	3.468676
