PE UV       SUBTECH     SPECTRUM    ASCII       PEDS        4.00        
   -1
KI6-XXA.Sample.Raw.asc
11/10/21
10:32:30.00
11/10/21
10:32:30.00
Hermanni Kaartokallio

200.000000
1
Lambda 650
650N8121101
PerkinElmer UV WinLab 6.0.2.0723 / 1.61.00 Lambda 650

0
0
2
0
0
UV/VIS
1
1
1
uv/vis/nir detector
0
0
0
0
Fix
 
0
0.24
0
0
0
 
 
 
0
 
0
319.2
0
Front
100
 
 
 
0
0
0
 
0
 
 
 
0
 
 
0
0
0
0
0
 
 
 
 
0
0
#HDR
-1
-1
#GR
nm
A
1.0
0.0
800.000000
-1.000000
601
8
1.423919
0.033914
#DATA
800.000000	0.042990
799.000000	0.043133
798.000000	0.043131
797.000000	0.043210
796.000000	0.043365
795.000000	0.043491
794.000000	0.043605
793.000000	0.043342
792.000000	0.043401
791.000000	0.043537
790.000000	0.043766
789.000000	0.043763
788.000000	0.043773
787.000000	0.043760
786.000000	0.043679
785.000000	0.043735
784.000000	0.043812
783.000000	0.043822
782.000000	0.043996
781.000000	0.044162
780.000000	0.044103
779.000000	0.044196
778.000000	0.044219
777.000000	0.044262
776.000000	0.044181
775.000000	0.044048
774.000000	0.043938
773.000000	0.043938
772.000000	0.043836
771.000000	0.043751
770.000000	0.043674
769.000000	0.043744
768.000000	0.043739
767.000000	0.043776
766.000000	0.043680
765.000000	0.043646
764.000000	0.043618
763.000000	0.043696
762.000000	0.043770
761.000000	0.043779
760.000000	0.043804
759.000000	0.043758
758.000000	0.043804
757.000000	0.043808
756.000000	0.043783
755.000000	0.043866
754.000000	0.043934
753.000000	0.043905
752.000000	0.043942
751.000000	0.044017
750.000000	0.043996
749.000000	0.043916
748.000000	0.043936
747.000000	0.043954
746.000000	0.043994
745.000000	0.043958
744.000000	0.043890
743.000000	0.043910
742.000000	0.043932
741.000000	0.043906
740.000000	0.043852
739.000000	0.043747
738.000000	0.043553
737.000000	0.043427
736.000000	0.043220
735.000000	0.042875
734.000000	0.042515
733.000000	0.042105
732.000000	0.041515
731.000000	0.040985
730.000000	0.040609
729.000000	0.040149
728.000000	0.039685
727.000000	0.039264
726.000000	0.038936
725.000000	0.038649
724.000000	0.038433
723.000000	0.038224
722.000000	0.038026
721.000000	0.037780
720.000000	0.037517
719.000000	0.037344
718.000000	0.037114
717.000000	0.036846
716.000000	0.036634
715.000000	0.036433
714.000000	0.036268
713.000000	0.036175
712.000000	0.035983
711.000000	0.035800
710.000000	0.035680
709.000000	0.035564
708.000000	0.035502
707.000000	0.035374
706.000000	0.035150
705.000000	0.034976
704.000000	0.034922
703.000000	0.034756
702.000000	0.034600
701.000000	0.034571
700.000000	0.034551
699.000000	0.034543
698.000000	0.034495
697.000000	0.034382
696.000000	0.034311
695.000000	0.034226
694.000000	0.034168
693.000000	0.034200
692.000000	0.034200
691.000000	0.034124
690.000000	0.034088
689.000000	0.034071
688.000000	0.034021
687.000000	0.034063
686.000000	0.034059
685.000000	0.034014
684.000000	0.033980
683.000000	0.033965
682.000000	0.033945
681.000000	0.033975
680.000000	0.034046
679.000000	0.034008
678.000000	0.033980
677.000000	0.033974
676.000000	0.033977
675.000000	0.033914
674.000000	0.033943
673.000000	0.034021
672.000000	0.034038
671.000000	0.034047
670.000000	0.034011
669.000000	0.034002
668.000000	0.034131
667.000000	0.034236
666.000000	0.034219
665.000000	0.034218
664.000000	0.034251
663.000000	0.034210
662.000000	0.034231
661.000000	0.034315
660.000000	0.034316
659.000000	0.034253
658.000000	0.034226
657.000000	0.034253
656.000000	0.034246
655.000000	0.034199
654.000000	0.034243
653.000000	0.034252
652.000000	0.034180
651.000000	0.034236
650.000000	0.034268
649.000000	0.034313
648.000000	0.034290
647.000000	0.034343
646.000000	0.034351
645.000000	0.034386
644.000000	0.034397
643.000000	0.034375
642.000000	0.034474
641.000000	0.034464
640.000000	0.034426
639.000000	0.034440
638.000000	0.034461
637.000000	0.034447
636.000000	0.034392
635.000000	0.034438
634.000000	0.034456
633.000000	0.034476
632.000000	0.034482
631.000000	0.034520
630.000000	0.034574
629.000000	0.034533
628.000000	0.034543
627.000000	0.034583
626.000000	0.034565
625.000000	0.034550
624.000000	0.034580
623.000000	0.034615
622.000000	0.034701
621.000000	0.034740
620.000000	0.034682
619.000000	0.034647
618.000000	0.034732
617.000000	0.034786
616.000000	0.034768
615.000000	0.034780
614.000000	0.034809
613.000000	0.034794
612.000000	0.034873
611.000000	0.034926
610.000000	0.034971
609.000000	0.034977
608.000000	0.035055
607.000000	0.035033
606.000000	0.035078
605.000000	0.035105
604.000000	0.034942
603.000000	0.035098
602.000000	0.035210
601.000000	0.035191
600.000000	0.035185
599.000000	0.035216
598.000000	0.035171
597.000000	0.035057
596.000000	0.035123
595.000000	0.035219
594.000000	0.035093
593.000000	0.035131
592.000000	0.035234
591.000000	0.035066
590.000000	0.035144
589.000000	0.035154
588.000000	0.035267
587.000000	0.035157
586.000000	0.035227
585.000000	0.035222
584.000000	0.035306
583.000000	0.035348
582.000000	0.035292
581.000000	0.035352
580.000000	0.035385
579.000000	0.035236
578.000000	0.035340
577.000000	0.035336
576.000000	0.035346
575.000000	0.035350
574.000000	0.035360
573.000000	0.035333
572.000000	0.035420
571.000000	0.035381
570.000000	0.035370
569.000000	0.035375
568.000000	0.035315
567.000000	0.035327
566.000000	0.035372
565.000000	0.035408
564.000000	0.035437
563.000000	0.035417
562.000000	0.035441
561.000000	0.035341
560.000000	0.035332
559.000000	0.035437
558.000000	0.035363
557.000000	0.035388
556.000000	0.035487
555.000000	0.035436
554.000000	0.035427
553.000000	0.035487
552.000000	0.035578
551.000000	0.035476
550.000000	0.035451
549.000000	0.035403
548.000000	0.035426
547.000000	0.035403
546.000000	0.035406
545.000000	0.035527
544.000000	0.035423
543.000000	0.035359
542.000000	0.035455
541.000000	0.035543
540.000000	0.035559
539.000000	0.035560
538.000000	0.035601
537.000000	0.035655
536.000000	0.035558
535.000000	0.035646
534.000000	0.035763
533.000000	0.035719
532.000000	0.035748
531.000000	0.035871
530.000000	0.035877
529.000000	0.035898
528.000000	0.035912
527.000000	0.036036
526.000000	0.036130
525.000000	0.036121
524.000000	0.036124
523.000000	0.036213
522.000000	0.036256
521.000000	0.036272
520.000000	0.036360
519.000000	0.036447
518.000000	0.036446
517.000000	0.036558
516.000000	0.036671
515.000000	0.036725
514.000000	0.036702
513.000000	0.036783
512.000000	0.036840
511.000000	0.036929
510.000000	0.036988
509.000000	0.037013
508.000000	0.037097
507.000000	0.037161
506.000000	0.037204
505.000000	0.037263
504.000000	0.037348
503.000000	0.037394
502.000000	0.037457
501.000000	0.037459
500.000000	0.037399
499.000000	0.037464
498.000000	0.037591
497.000000	0.037702
496.000000	0.037691
495.000000	0.037693
494.000000	0.037738
493.000000	0.037833
492.000000	0.037880
491.000000	0.037917
490.000000	0.038001
489.000000	0.038010
488.000000	0.038040
487.000000	0.038102
486.000000	0.038166
485.000000	0.038202
484.000000	0.038261
483.000000	0.038308
482.000000	0.038301
481.000000	0.038406
480.000000	0.038472
479.000000	0.038472
478.000000	0.038459
477.000000	0.038491
476.000000	0.038643
475.000000	0.038657
474.000000	0.038767
473.000000	0.038830
472.000000	0.038958
471.000000	0.039030
470.000000	0.039061
469.000000	0.039227
468.000000	0.039337
467.000000	0.039409
466.000000	0.039517
465.000000	0.039522
464.000000	0.039622
463.000000	0.039759
462.000000	0.039808
461.000000	0.039990
460.000000	0.040136
459.000000	0.040130
458.000000	0.040291
457.000000	0.040464
456.000000	0.040560
455.000000	0.040694
454.000000	0.040898
453.000000	0.040963
452.000000	0.041073
451.000000	0.041334
450.000000	0.041408
449.000000	0.041465
448.000000	0.041572
447.000000	0.041780
446.000000	0.041993
445.000000	0.042132
444.000000	0.042301
443.000000	0.042509
442.000000	0.042668
441.000000	0.042726
440.000000	0.043050
439.000000	0.043251
438.000000	0.043409
437.000000	0.043646
436.000000	0.043868
435.000000	0.043970
434.000000	0.044111
433.000000	0.044394
432.000000	0.044649
431.000000	0.044812
430.000000	0.044997
429.000000	0.045160
428.000000	0.045486
427.000000	0.045695
426.000000	0.045922
425.000000	0.045995
424.000000	0.046384
423.000000	0.046570
422.000000	0.046818
421.000000	0.047147
420.000000	0.047336
419.000000	0.047567
418.000000	0.047851
417.000000	0.048117
416.000000	0.048328
415.000000	0.048421
414.000000	0.048827
413.000000	0.048999
412.000000	0.049121
411.000000	0.049409
410.000000	0.049978
409.000000	0.050032
408.000000	0.050311
407.000000	0.050454
406.000000	0.050844
405.000000	0.051138
404.000000	0.051291
403.000000	0.051681
402.000000	0.051928
401.000000	0.052216
400.000000	0.052630
399.000000	0.052818
398.000000	0.053177
397.000000	0.053391
396.000000	0.053760
395.000000	0.054087
394.000000	0.054315
393.000000	0.054519
392.000000	0.055126
391.000000	0.055400
390.000000	0.055666
389.000000	0.056105
388.000000	0.056444
387.000000	0.056798
386.000000	0.057234
385.000000	0.057627
384.000000	0.057903
383.000000	0.058250
382.000000	0.058680
381.000000	0.059096
380.000000	0.059811
379.000000	0.060039
378.000000	0.060518
377.000000	0.060914
376.000000	0.061416
375.000000	0.061947
374.000000	0.062394
373.000000	0.062953
372.000000	0.063334
371.000000	0.063925
370.000000	0.064417
369.000000	0.065060
368.000000	0.065529
367.000000	0.066169
366.000000	0.066612
365.000000	0.067130
364.000000	0.067847
363.000000	0.068524
362.000000	0.069047
361.000000	0.069606
360.000000	0.070295
359.000000	0.070913
358.000000	0.071543
357.000000	0.072292
356.000000	0.072952
355.000000	0.073459
354.000000	0.074242
353.000000	0.074916
352.000000	0.075680
351.000000	0.076441
350.000000	0.077130
349.000000	0.077892
348.000000	0.078626
347.000000	0.079363
346.000000	0.080270
345.000000	0.081077
344.000000	0.081734
343.000000	0.082519
342.000000	0.083506
341.000000	0.084235
340.000000	0.085086
339.000000	0.085974
338.000000	0.086904
337.000000	0.087722
336.000000	0.088634
335.000000	0.089472
334.000000	0.090529
333.000000	0.091403
332.000000	0.092320
331.000000	0.093363
330.000000	0.094312
329.000000	0.095354
328.000000	0.096420
327.000000	0.097443
326.000000	0.098508
325.000000	0.099531
324.000000	0.100717
323.000000	0.101825
322.000000	0.102876
321.000000	0.104001
320.000000	0.105150
319.000000	0.106465
318.000000	0.106882
317.000000	0.106317
316.000000	0.107463
315.000000	0.108822
314.000000	0.110138
313.000000	0.111439
312.000000	0.112859
311.000000	0.114226
310.000000	0.115698
309.000000	0.117149
308.000000	0.118599
307.000000	0.120091
306.000000	0.121628
305.000000	0.123111
304.000000	0.124675
303.000000	0.126403
302.000000	0.128032
301.000000	0.129719
300.000000	0.131531
299.000000	0.133244
298.000000	0.134952
297.000000	0.136793
296.000000	0.138705
295.000000	0.140691
294.000000	0.142645
293.000000	0.144612
292.000000	0.146692
291.000000	0.148857
290.000000	0.150953
289.000000	0.153133
288.000000	0.155375
287.000000	0.157516
286.000000	0.159732
285.000000	0.162164
284.000000	0.164513
283.000000	0.166763
282.000000	0.169051
281.000000	0.171406
280.000000	0.173755
279.000000	0.176121
278.000000	0.178530
277.000000	0.180932
276.000000	0.183333
275.000000	0.185733
274.000000	0.188256
273.000000	0.190800
272.000000	0.193250
271.000000	0.195683
270.000000	0.198094
269.000000	0.200349
268.000000	0.202656
267.000000	0.205031
266.000000	0.207283
265.000000	0.209332
264.000000	0.211435
263.000000	0.213610
262.000000	0.215680
261.000000	0.217582
260.000000	0.219377
259.000000	0.221234
258.000000	0.222987
257.000000	0.224671
256.000000	0.226437
255.000000	0.228137
254.000000	0.229764
253.000000	0.231429
252.000000	0.233198
251.000000	0.234888
250.000000	0.236649
249.000000	0.238517
248.000000	0.240521
247.000000	0.242542
246.000000	0.244788
245.000000	0.247114
244.000000	0.249494
243.000000	0.252098
242.000000	0.255026
241.000000	0.258075
240.000000	0.261002
239.000000	0.264023
238.000000	0.267470
237.000000	0.271042
236.000000	0.274656
235.000000	0.278452
234.000000	0.282523
233.000000	0.286730
232.000000	0.290939
231.000000	0.295417
230.000000	0.299957
229.000000	0.304455
228.000000	0.309153
227.000000	0.314011
226.000000	0.318894
225.000000	0.324248
224.000000	0.329766
223.000000	0.335737
222.000000	0.341997
221.000000	0.348834
220.000000	0.356257
219.000000	0.364745
218.000000	0.373785
217.000000	0.384291
216.000000	0.396199
215.000000	0.409926
214.000000	0.426068
213.000000	0.444985
212.000000	0.466952
211.000000	0.492298
210.000000	0.521624
209.000000	0.555718
208.000000	0.595325
207.000000	0.641442
206.000000	0.695474
205.000000	0.759961
204.000000	0.837991
203.000000	0.934547
202.000000	1.056642
201.000000	1.215020
200.000000	1.423919
