PE UV       SUBTECH     SPECTRUM    ASCII       PEDS        4.00        
   -1
KI6-04A.Sample.Raw.asc
11/10/21
10:57:17.00
11/10/21
10:57:17.00
Hermanni Kaartokallio

200.000000
1
Lambda 650
650N8121101
PerkinElmer UV WinLab 6.0.2.0723 / 1.61.00 Lambda 650

0
0
2
0
0
UV/VIS
1
1
1
uv/vis/nir detector
0
0
0
0
Fix
 
0
0.24
0
0
0
 
 
 
0
 
0
319.2
0
Front
100
 
 
 
0
0
0
 
0
 
 
 
0
 
 
0
0
0
0
0
 
 
 
 
0
0
#HDR
-1
-1
#GR
nm
A
1.0
0.0
800.000000
-1.000000
601
8
1.509064
0.032990
#DATA
800.000000	0.040979
799.000000	0.041056
798.000000	0.041029
797.000000	0.041282
796.000000	0.041269
795.000000	0.041341
794.000000	0.041440
793.000000	0.041479
792.000000	0.041475
791.000000	0.041587
790.000000	0.041730
789.000000	0.041866
788.000000	0.041750
787.000000	0.041843
786.000000	0.041928
785.000000	0.042036
784.000000	0.042163
783.000000	0.042163
782.000000	0.042349
781.000000	0.042387
780.000000	0.042172
779.000000	0.042419
778.000000	0.042412
777.000000	0.042468
776.000000	0.042507
775.000000	0.042592
774.000000	0.042578
773.000000	0.042601
772.000000	0.042656
771.000000	0.042739
770.000000	0.042717
769.000000	0.042781
768.000000	0.042765
767.000000	0.042814
766.000000	0.042882
765.000000	0.042856
764.000000	0.042976
763.000000	0.043018
762.000000	0.042969
761.000000	0.043031
760.000000	0.043064
759.000000	0.043109
758.000000	0.043125
757.000000	0.043124
756.000000	0.043091
755.000000	0.043162
754.000000	0.043184
753.000000	0.043234
752.000000	0.043308
751.000000	0.043260
750.000000	0.043260
749.000000	0.043233
748.000000	0.043204
747.000000	0.043181
746.000000	0.043242
745.000000	0.043176
744.000000	0.043066
743.000000	0.043122
742.000000	0.043222
741.000000	0.043084
740.000000	0.042980
739.000000	0.042880
738.000000	0.042785
737.000000	0.042570
736.000000	0.042302
735.000000	0.042039
734.000000	0.041646
733.000000	0.041195
732.000000	0.040633
731.000000	0.040135
730.000000	0.039690
729.000000	0.039176
728.000000	0.038725
727.000000	0.038379
726.000000	0.038070
725.000000	0.037783
724.000000	0.037565
723.000000	0.037305
722.000000	0.037106
721.000000	0.036894
720.000000	0.036650
719.000000	0.036394
718.000000	0.036199
717.000000	0.035998
716.000000	0.035813
715.000000	0.035636
714.000000	0.035410
713.000000	0.035289
712.000000	0.035169
711.000000	0.034969
710.000000	0.034847
709.000000	0.034765
708.000000	0.034593
707.000000	0.034381
706.000000	0.034256
705.000000	0.034206
704.000000	0.034135
703.000000	0.033972
702.000000	0.033847
701.000000	0.033788
700.000000	0.033762
699.000000	0.033774
698.000000	0.033729
697.000000	0.033603
696.000000	0.033532
695.000000	0.033518
694.000000	0.033487
693.000000	0.033460
692.000000	0.033430
691.000000	0.033364
690.000000	0.033264
689.000000	0.033255
688.000000	0.033243
687.000000	0.033224
686.000000	0.033190
685.000000	0.033210
684.000000	0.033261
683.000000	0.033199
682.000000	0.033135
681.000000	0.033130
680.000000	0.033183
679.000000	0.033175
678.000000	0.033183
677.000000	0.033171
676.000000	0.033135
675.000000	0.032990
674.000000	0.033038
673.000000	0.033162
672.000000	0.033168
671.000000	0.033150
670.000000	0.033168
669.000000	0.033150
668.000000	0.033188
667.000000	0.033231
666.000000	0.033225
665.000000	0.033180
664.000000	0.033163
663.000000	0.033211
662.000000	0.033259
661.000000	0.033272
660.000000	0.033184
659.000000	0.033213
658.000000	0.033182
657.000000	0.033145
656.000000	0.033136
655.000000	0.033104
654.000000	0.033106
653.000000	0.033058
652.000000	0.033083
651.000000	0.033125
650.000000	0.033099
649.000000	0.033101
648.000000	0.033120
647.000000	0.033122
646.000000	0.033110
645.000000	0.033167
644.000000	0.033165
643.000000	0.033145
642.000000	0.033241
641.000000	0.033257
640.000000	0.033215
639.000000	0.033215
638.000000	0.033199
637.000000	0.033220
636.000000	0.033242
635.000000	0.033267
634.000000	0.033285
633.000000	0.033241
632.000000	0.033245
631.000000	0.033288
630.000000	0.033365
629.000000	0.033290
628.000000	0.033276
627.000000	0.033343
626.000000	0.033358
625.000000	0.033309
624.000000	0.033309
623.000000	0.033336
622.000000	0.033453
621.000000	0.033443
620.000000	0.033465
619.000000	0.033510
618.000000	0.033524
617.000000	0.033571
616.000000	0.033553
615.000000	0.033548
614.000000	0.033606
613.000000	0.033594
612.000000	0.033727
611.000000	0.033762
610.000000	0.033744
609.000000	0.033711
608.000000	0.033814
607.000000	0.033815
606.000000	0.033839
605.000000	0.033913
604.000000	0.033851
603.000000	0.033937
602.000000	0.033970
601.000000	0.034005
600.000000	0.034017
599.000000	0.033980
598.000000	0.033955
597.000000	0.033967
596.000000	0.033954
595.000000	0.033864
594.000000	0.033938
593.000000	0.033940
592.000000	0.033997
591.000000	0.033871
590.000000	0.034018
589.000000	0.033950
588.000000	0.034058
587.000000	0.033945
586.000000	0.034086
585.000000	0.034020
584.000000	0.033955
583.000000	0.034060
582.000000	0.034078
581.000000	0.034094
580.000000	0.034099
579.000000	0.034034
578.000000	0.034086
577.000000	0.034026
576.000000	0.034070
575.000000	0.034160
574.000000	0.034149
573.000000	0.034064
572.000000	0.034150
571.000000	0.034087
570.000000	0.034097
569.000000	0.034089
568.000000	0.034162
567.000000	0.034082
566.000000	0.034109
565.000000	0.034178
564.000000	0.034182
563.000000	0.034100
562.000000	0.034213
561.000000	0.034135
560.000000	0.034146
559.000000	0.034214
558.000000	0.034197
557.000000	0.034230
556.000000	0.034228
555.000000	0.034108
554.000000	0.034146
553.000000	0.034269
552.000000	0.034237
551.000000	0.034255
550.000000	0.034265
549.000000	0.034187
548.000000	0.034131
547.000000	0.034159
546.000000	0.034245
545.000000	0.034217
544.000000	0.034233
543.000000	0.034199
542.000000	0.034237
541.000000	0.034260
540.000000	0.034336
539.000000	0.034325
538.000000	0.034311
537.000000	0.034339
536.000000	0.034408
535.000000	0.034468
534.000000	0.034533
533.000000	0.034564
532.000000	0.034611
531.000000	0.034603
530.000000	0.034632
529.000000	0.034692
528.000000	0.034737
527.000000	0.034800
526.000000	0.034847
525.000000	0.034866
524.000000	0.034923
523.000000	0.034978
522.000000	0.035001
521.000000	0.035061
520.000000	0.035135
519.000000	0.035233
518.000000	0.035284
517.000000	0.035373
516.000000	0.035377
515.000000	0.035405
514.000000	0.035444
513.000000	0.035526
512.000000	0.035567
511.000000	0.035638
510.000000	0.035710
509.000000	0.035719
508.000000	0.035766
507.000000	0.035825
506.000000	0.035927
505.000000	0.035948
504.000000	0.035962
503.000000	0.036059
502.000000	0.036109
501.000000	0.036040
500.000000	0.036108
499.000000	0.036226
498.000000	0.036257
497.000000	0.036297
496.000000	0.036325
495.000000	0.036331
494.000000	0.036323
493.000000	0.036407
492.000000	0.036517
491.000000	0.036527
490.000000	0.036537
489.000000	0.036556
488.000000	0.036621
487.000000	0.036668
486.000000	0.036736
485.000000	0.036821
484.000000	0.036845
483.000000	0.036845
482.000000	0.036840
481.000000	0.036939
480.000000	0.037007
479.000000	0.036995
478.000000	0.037018
477.000000	0.037057
476.000000	0.037161
475.000000	0.037168
474.000000	0.037271
473.000000	0.037347
472.000000	0.037439
471.000000	0.037501
470.000000	0.037564
469.000000	0.037680
468.000000	0.037741
467.000000	0.037842
466.000000	0.037924
465.000000	0.037915
464.000000	0.038052
463.000000	0.038187
462.000000	0.038221
461.000000	0.038344
460.000000	0.038490
459.000000	0.038527
458.000000	0.038633
457.000000	0.038790
456.000000	0.038913
455.000000	0.039058
454.000000	0.039192
453.000000	0.039260
452.000000	0.039371
451.000000	0.039536
450.000000	0.039595
449.000000	0.039697
448.000000	0.039897
447.000000	0.040063
446.000000	0.040212
445.000000	0.040392
444.000000	0.040592
443.000000	0.040689
442.000000	0.040834
441.000000	0.040910
440.000000	0.041195
439.000000	0.041333
438.000000	0.041466
437.000000	0.041708
436.000000	0.041896
435.000000	0.041971
434.000000	0.042228
433.000000	0.042426
432.000000	0.042655
431.000000	0.042823
430.000000	0.042984
429.000000	0.043161
428.000000	0.043390
427.000000	0.043563
426.000000	0.043840
425.000000	0.043897
424.000000	0.044224
423.000000	0.044442
422.000000	0.044643
421.000000	0.044849
420.000000	0.045116
419.000000	0.045339
418.000000	0.045570
417.000000	0.045813
416.000000	0.046016
415.000000	0.046071
414.000000	0.046410
413.000000	0.046584
412.000000	0.046750
411.000000	0.047023
410.000000	0.047511
409.000000	0.047579
408.000000	0.047802
407.000000	0.047898
406.000000	0.048214
405.000000	0.048582
404.000000	0.048747
403.000000	0.048985
402.000000	0.049311
401.000000	0.049523
400.000000	0.049837
399.000000	0.050015
398.000000	0.050423
397.000000	0.050612
396.000000	0.050907
395.000000	0.051180
394.000000	0.051427
393.000000	0.051622
392.000000	0.051983
391.000000	0.052318
390.000000	0.052658
389.000000	0.052951
388.000000	0.053183
387.000000	0.053418
386.000000	0.054010
385.000000	0.054287
384.000000	0.054542
383.000000	0.054924
382.000000	0.055242
381.000000	0.055526
380.000000	0.056258
379.000000	0.056474
378.000000	0.056679
377.000000	0.057194
376.000000	0.057532
375.000000	0.058053
374.000000	0.058429
373.000000	0.058906
372.000000	0.059357
371.000000	0.059782
370.000000	0.060205
369.000000	0.060785
368.000000	0.061285
367.000000	0.061726
366.000000	0.062258
365.000000	0.062757
364.000000	0.063333
363.000000	0.063796
362.000000	0.064284
361.000000	0.064826
360.000000	0.065401
359.000000	0.065995
358.000000	0.066600
357.000000	0.067173
356.000000	0.067836
355.000000	0.068361
354.000000	0.069111
353.000000	0.069719
352.000000	0.070299
351.000000	0.070876
350.000000	0.071576
349.000000	0.072278
348.000000	0.072870
347.000000	0.073603
346.000000	0.074290
345.000000	0.075039
344.000000	0.075741
343.000000	0.076462
342.000000	0.077200
341.000000	0.077822
340.000000	0.078592
339.000000	0.079391
338.000000	0.080229
337.000000	0.080979
336.000000	0.081835
335.000000	0.082619
334.000000	0.083497
333.000000	0.084405
332.000000	0.085204
331.000000	0.086104
330.000000	0.087002
329.000000	0.087907
328.000000	0.088842
327.000000	0.089775
326.000000	0.090741
325.000000	0.091705
324.000000	0.092719
323.000000	0.093660
322.000000	0.094696
321.000000	0.095778
320.000000	0.096824
319.000000	0.097959
318.000000	0.098156
317.000000	0.097234
316.000000	0.098237
315.000000	0.099426
314.000000	0.100652
313.000000	0.101856
312.000000	0.103137
311.000000	0.104401
310.000000	0.105669
309.000000	0.107002
308.000000	0.108408
307.000000	0.109743
306.000000	0.111081
305.000000	0.112440
304.000000	0.113947
303.000000	0.115561
302.000000	0.117039
301.000000	0.118537
300.000000	0.120179
299.000000	0.121753
298.000000	0.123315
297.000000	0.124985
296.000000	0.126797
295.000000	0.128646
294.000000	0.130491
293.000000	0.132313
292.000000	0.134144
291.000000	0.136101
290.000000	0.138047
289.000000	0.140046
288.000000	0.142138
287.000000	0.144133
286.000000	0.146161
285.000000	0.148264
284.000000	0.150375
283.000000	0.152558
282.000000	0.154771
281.000000	0.156885
280.000000	0.158997
279.000000	0.161193
278.000000	0.163397
277.000000	0.165589
276.000000	0.167827
275.000000	0.170069
274.000000	0.172360
273.000000	0.174640
272.000000	0.176901
271.000000	0.179129
270.000000	0.181272
269.000000	0.183314
268.000000	0.185483
267.000000	0.187667
266.000000	0.189715
265.000000	0.191686
264.000000	0.193646
263.000000	0.195611
262.000000	0.197505
261.000000	0.199294
260.000000	0.200979
259.000000	0.202594
258.000000	0.204210
257.000000	0.205827
256.000000	0.207370
255.000000	0.208834
254.000000	0.210416
253.000000	0.211984
252.000000	0.213522
251.000000	0.215085
250.000000	0.216720
249.000000	0.218425
248.000000	0.220393
247.000000	0.222311
246.000000	0.224424
245.000000	0.226497
244.000000	0.228715
243.000000	0.231167
242.000000	0.233781
241.000000	0.236509
240.000000	0.239252
239.000000	0.242151
238.000000	0.245280
237.000000	0.248507
236.000000	0.251860
235.000000	0.255383
234.000000	0.258980
233.000000	0.262857
232.000000	0.266760
231.000000	0.270798
230.000000	0.274902
229.000000	0.278993
228.000000	0.283349
227.000000	0.287843
226.000000	0.292472
225.000000	0.297472
224.000000	0.302670
223.000000	0.308283
222.000000	0.314280
221.000000	0.320822
220.000000	0.328107
219.000000	0.336326
218.000000	0.345473
217.000000	0.356061
216.000000	0.368543
215.000000	0.382881
214.000000	0.399557
213.000000	0.419429
212.000000	0.442835
211.000000	0.470251
210.000000	0.502216
209.000000	0.539111
208.000000	0.582390
207.000000	0.633357
206.000000	0.693413
205.000000	0.764982
204.000000	0.852370
203.000000	0.960376
202.000000	1.097781
201.000000	1.275142
200.000000	1.509064
