PE UV       SUBTECH     SPECTRUM    ASCII       PEDS        4.00        
   -1
MQ12110.Sample.Raw.asc
11/10/21
10:13:45.00
11/10/21
10:13:45.00
Hermanni Kaartokallio

200.000000
1
Lambda 650
650N8121101
PerkinElmer UV WinLab 6.0.2.0723 / 1.61.00 Lambda 650

0
0
2
0
0
UV/VIS
1
1
1
uv/vis/nir detector
0
0
0
0
Fix
 
0
0.24
0
0
0
 
 
 
0
 
0
319.2
0
Front
100
 
 
 
0
0
0
 
0
 
 
 
0
 
 
0
0
0
0
0
 
 
 
 
0
0
#HDR
-1
-1
#GR
nm
A
1.0
0.0
800.000000
-1.000000
601
8
0.106227
0.033275
#DATA
800.000000	0.041411
799.000000	0.041357
798.000000	0.041551
797.000000	0.041561
796.000000	0.041644
795.000000	0.041644
794.000000	0.041831
793.000000	0.041720
792.000000	0.041707
791.000000	0.041836
790.000000	0.042091
789.000000	0.042169
788.000000	0.042040
787.000000	0.042161
786.000000	0.042306
785.000000	0.042357
784.000000	0.042446
783.000000	0.042462
782.000000	0.042665
781.000000	0.042665
780.000000	0.042626
779.000000	0.042812
778.000000	0.042792
777.000000	0.042791
776.000000	0.042964
775.000000	0.043047
774.000000	0.043016
773.000000	0.043133
772.000000	0.043166
771.000000	0.043143
770.000000	0.043164
769.000000	0.043256
768.000000	0.043291
767.000000	0.043338
766.000000	0.043346
765.000000	0.043409
764.000000	0.043484
763.000000	0.043450
762.000000	0.043433
761.000000	0.043618
760.000000	0.043685
759.000000	0.043639
758.000000	0.043648
757.000000	0.043747
756.000000	0.043650
755.000000	0.043650
754.000000	0.043696
753.000000	0.043713
752.000000	0.043667
751.000000	0.043699
750.000000	0.043734
749.000000	0.043718
748.000000	0.043605
747.000000	0.043592
746.000000	0.043666
745.000000	0.043592
744.000000	0.043454
743.000000	0.043514
742.000000	0.043546
741.000000	0.043371
740.000000	0.043313
739.000000	0.043228
738.000000	0.043025
737.000000	0.042834
736.000000	0.042579
735.000000	0.042306
734.000000	0.041872
733.000000	0.041353
732.000000	0.040847
731.000000	0.040354
730.000000	0.039939
729.000000	0.039413
728.000000	0.039048
727.000000	0.038645
726.000000	0.038288
725.000000	0.038093
724.000000	0.037838
723.000000	0.037542
722.000000	0.037399
721.000000	0.037214
720.000000	0.036931
719.000000	0.036674
718.000000	0.036478
717.000000	0.036315
716.000000	0.036137
715.000000	0.035947
714.000000	0.035787
713.000000	0.035739
712.000000	0.035565
711.000000	0.035395
710.000000	0.035338
709.000000	0.035232
708.000000	0.035088
707.000000	0.034972
706.000000	0.034861
705.000000	0.034742
704.000000	0.034694
703.000000	0.034554
702.000000	0.034437
701.000000	0.034392
700.000000	0.034341
699.000000	0.034369
698.000000	0.034317
697.000000	0.034193
696.000000	0.034176
695.000000	0.034150
694.000000	0.034078
693.000000	0.034061
692.000000	0.034113
691.000000	0.034045
690.000000	0.033946
689.000000	0.033986
688.000000	0.033861
687.000000	0.033758
686.000000	0.033767
685.000000	0.033786
684.000000	0.033760
683.000000	0.033642
682.000000	0.033578
681.000000	0.033642
680.000000	0.033627
679.000000	0.033566
678.000000	0.033575
677.000000	0.033532
676.000000	0.033440
675.000000	0.033403
674.000000	0.033446
673.000000	0.033457
672.000000	0.033440
671.000000	0.033432
670.000000	0.033439
669.000000	0.033412
668.000000	0.033425
667.000000	0.033494
666.000000	0.033437
665.000000	0.033390
664.000000	0.033350
663.000000	0.033426
662.000000	0.033419
661.000000	0.033376
660.000000	0.033473
659.000000	0.033488
658.000000	0.033362
657.000000	0.033322
656.000000	0.033393
655.000000	0.033326
654.000000	0.033283
653.000000	0.033327
652.000000	0.033310
651.000000	0.033275
650.000000	0.033279
649.000000	0.033364
648.000000	0.033348
647.000000	0.033302
646.000000	0.033341
645.000000	0.033426
644.000000	0.033404
643.000000	0.033349
642.000000	0.033438
641.000000	0.033457
640.000000	0.033343
639.000000	0.033356
638.000000	0.033409
637.000000	0.033446
636.000000	0.033382
635.000000	0.033459
634.000000	0.033445
633.000000	0.033442
632.000000	0.033423
631.000000	0.033492
630.000000	0.033538
629.000000	0.033471
628.000000	0.033408
627.000000	0.033511
626.000000	0.033564
625.000000	0.033509
624.000000	0.033534
623.000000	0.033581
622.000000	0.033590
621.000000	0.033529
620.000000	0.033573
619.000000	0.033667
618.000000	0.033680
617.000000	0.033696
616.000000	0.033754
615.000000	0.033750
614.000000	0.033641
613.000000	0.033728
612.000000	0.033870
611.000000	0.033860
610.000000	0.033808
609.000000	0.033913
608.000000	0.033938
607.000000	0.033878
606.000000	0.033939
605.000000	0.034032
604.000000	0.033882
603.000000	0.033913
602.000000	0.033998
601.000000	0.034014
600.000000	0.033958
599.000000	0.033954
598.000000	0.033960
597.000000	0.033956
596.000000	0.033848
595.000000	0.033862
594.000000	0.033853
593.000000	0.033866
592.000000	0.033869
591.000000	0.033768
590.000000	0.033894
589.000000	0.033838
588.000000	0.033868
587.000000	0.033773
586.000000	0.033839
585.000000	0.033732
584.000000	0.033825
583.000000	0.033872
582.000000	0.033892
581.000000	0.033845
580.000000	0.033854
579.000000	0.033807
578.000000	0.033823
577.000000	0.033767
576.000000	0.033855
575.000000	0.033858
574.000000	0.033828
573.000000	0.033760
572.000000	0.033892
571.000000	0.033853
570.000000	0.033762
569.000000	0.033866
568.000000	0.033814
567.000000	0.033749
566.000000	0.033738
565.000000	0.033869
564.000000	0.033888
563.000000	0.033736
562.000000	0.033855
561.000000	0.033784
560.000000	0.033718
559.000000	0.033784
558.000000	0.033831
557.000000	0.033773
556.000000	0.033772
555.000000	0.033778
554.000000	0.033756
553.000000	0.033728
552.000000	0.033751
551.000000	0.033781
550.000000	0.033737
549.000000	0.033644
548.000000	0.033651
547.000000	0.033712
546.000000	0.033663
545.000000	0.033702
544.000000	0.033748
543.000000	0.033730
542.000000	0.033701
541.000000	0.033715
540.000000	0.033802
539.000000	0.033779
538.000000	0.033724
537.000000	0.033782
536.000000	0.033791
535.000000	0.033799
534.000000	0.033828
533.000000	0.033893
532.000000	0.033859
531.000000	0.033846
530.000000	0.033836
529.000000	0.033912
528.000000	0.033927
527.000000	0.033939
526.000000	0.034016
525.000000	0.034066
524.000000	0.034006
523.000000	0.034092
522.000000	0.034168
521.000000	0.034148
520.000000	0.034115
519.000000	0.034190
518.000000	0.034201
517.000000	0.034225
516.000000	0.034233
515.000000	0.034312
514.000000	0.034360
513.000000	0.034325
512.000000	0.034345
511.000000	0.034468
510.000000	0.034457
509.000000	0.034354
508.000000	0.034396
507.000000	0.034444
506.000000	0.034434
505.000000	0.034455
504.000000	0.034529
503.000000	0.034518
502.000000	0.034433
501.000000	0.034333
500.000000	0.034341
499.000000	0.034339
498.000000	0.034353
497.000000	0.034452
496.000000	0.034473
495.000000	0.034362
494.000000	0.034327
493.000000	0.034421
492.000000	0.034438
491.000000	0.034448
490.000000	0.034489
489.000000	0.034478
488.000000	0.034430
487.000000	0.034459
486.000000	0.034571
485.000000	0.034603
484.000000	0.034585
483.000000	0.034586
482.000000	0.034579
481.000000	0.034581
480.000000	0.034530
479.000000	0.034510
478.000000	0.034488
477.000000	0.034390
476.000000	0.034383
475.000000	0.034408
474.000000	0.034461
473.000000	0.034395
472.000000	0.034471
471.000000	0.034569
470.000000	0.034533
469.000000	0.034587
468.000000	0.034668
467.000000	0.034763
466.000000	0.034706
465.000000	0.034622
464.000000	0.034735
463.000000	0.034798
462.000000	0.034681
461.000000	0.034754
460.000000	0.034906
459.000000	0.034859
458.000000	0.034839
457.000000	0.034952
456.000000	0.035014
455.000000	0.035011
454.000000	0.035079
453.000000	0.035168
452.000000	0.035193
451.000000	0.035215
450.000000	0.035240
449.000000	0.035303
448.000000	0.035352
447.000000	0.035364
446.000000	0.035469
445.000000	0.035561
444.000000	0.035601
443.000000	0.035614
442.000000	0.035715
441.000000	0.035718
440.000000	0.035834
439.000000	0.035929
438.000000	0.035971
437.000000	0.036000
436.000000	0.036010
435.000000	0.036036
434.000000	0.036143
433.000000	0.036216
432.000000	0.036284
431.000000	0.036387
430.000000	0.036403
429.000000	0.036346
428.000000	0.036488
427.000000	0.036584
426.000000	0.036631
425.000000	0.036507
424.000000	0.036778
423.000000	0.036827
422.000000	0.036794
421.000000	0.036817
420.000000	0.036987
419.000000	0.037055
418.000000	0.037097
417.000000	0.037141
416.000000	0.037192
415.000000	0.037020
414.000000	0.037124
413.000000	0.037216
412.000000	0.037156
411.000000	0.037125
410.000000	0.037412
409.000000	0.037403
408.000000	0.037397
407.000000	0.037223
406.000000	0.037331
405.000000	0.037489
404.000000	0.037341
403.000000	0.037372
402.000000	0.037504
401.000000	0.037510
400.000000	0.037482
399.000000	0.037502
398.000000	0.037640
397.000000	0.037582
396.000000	0.037489
395.000000	0.037564
394.000000	0.037496
393.000000	0.037375
392.000000	0.037574
391.000000	0.037566
390.000000	0.037501
389.000000	0.037522
388.000000	0.037427
387.000000	0.037490
386.000000	0.037604
385.000000	0.037452
384.000000	0.037568
383.000000	0.037501
382.000000	0.037402
381.000000	0.037422
380.000000	0.037848
379.000000	0.037689
378.000000	0.037224
377.000000	0.037331
376.000000	0.037432
375.000000	0.037504
374.000000	0.037467
373.000000	0.037540
372.000000	0.037599
371.000000	0.037550
370.000000	0.037721
369.000000	0.037820
368.000000	0.037798
367.000000	0.037898
366.000000	0.037884
365.000000	0.037954
364.000000	0.037952
363.000000	0.038046
362.000000	0.038092
361.000000	0.038074
360.000000	0.038074
359.000000	0.038236
358.000000	0.038194
357.000000	0.038481
356.000000	0.038359
355.000000	0.038397
354.000000	0.038456
353.000000	0.038384
352.000000	0.038460
351.000000	0.038629
350.000000	0.038600
349.000000	0.038702
348.000000	0.038791
347.000000	0.038788
346.000000	0.038816
345.000000	0.038889
344.000000	0.038986
343.000000	0.039042
342.000000	0.039035
341.000000	0.038999
340.000000	0.039228
339.000000	0.039270
338.000000	0.039318
337.000000	0.039397
336.000000	0.039547
335.000000	0.039479
334.000000	0.039651
333.000000	0.039757
332.000000	0.039741
331.000000	0.039764
330.000000	0.039964
329.000000	0.040067
328.000000	0.040092
327.000000	0.040170
326.000000	0.040355
325.000000	0.040296
324.000000	0.040373
323.000000	0.040445
322.000000	0.040635
321.000000	0.040588
320.000000	0.040678
319.000000	0.040883
318.000000	0.040088
317.000000	0.038267
316.000000	0.038319
315.000000	0.038391
314.000000	0.038484
313.000000	0.038631
312.000000	0.038714
311.000000	0.038722
310.000000	0.038879
309.000000	0.039125
308.000000	0.039285
307.000000	0.039251
306.000000	0.039393
305.000000	0.039535
304.000000	0.039628
303.000000	0.039798
302.000000	0.039994
301.000000	0.040093
300.000000	0.040155
299.000000	0.040297
298.000000	0.040419
297.000000	0.040498
296.000000	0.040662
295.000000	0.040904
294.000000	0.041117
293.000000	0.041148
292.000000	0.041230
291.000000	0.041503
290.000000	0.041648
289.000000	0.041783
288.000000	0.041992
287.000000	0.042088
286.000000	0.042148
285.000000	0.042394
284.000000	0.042617
283.000000	0.042743
282.000000	0.042888
281.000000	0.043066
280.000000	0.043231
279.000000	0.043293
278.000000	0.043476
277.000000	0.043748
276.000000	0.043970
275.000000	0.044079
274.000000	0.044253
273.000000	0.044582
272.000000	0.044826
271.000000	0.044909
270.000000	0.045056
269.000000	0.045264
268.000000	0.045427
267.000000	0.045629
266.000000	0.045863
265.000000	0.046051
264.000000	0.046193
263.000000	0.046395
262.000000	0.046702
261.000000	0.046954
260.000000	0.047089
259.000000	0.047360
258.000000	0.047643
257.000000	0.047783
256.000000	0.048008
255.000000	0.048281
254.000000	0.048569
253.000000	0.048825
252.000000	0.049080
251.000000	0.049357
250.000000	0.049654
249.000000	0.049862
248.000000	0.050229
247.000000	0.050602
246.000000	0.050929
245.000000	0.051258
244.000000	0.051619
243.000000	0.051954
242.000000	0.052262
241.000000	0.052706
240.000000	0.053121
239.000000	0.053353
238.000000	0.053741
237.000000	0.054239
236.000000	0.054632
235.000000	0.054968
234.000000	0.055366
233.000000	0.055781
232.000000	0.056174
231.000000	0.056627
230.000000	0.057224
229.000000	0.057746
228.000000	0.058119
227.000000	0.058523
226.000000	0.059056
225.000000	0.059762
224.000000	0.060252
223.000000	0.060883
222.000000	0.061773
221.000000	0.062495
220.000000	0.063234
219.000000	0.064197
218.000000	0.065196
217.000000	0.066220
216.000000	0.067355
215.000000	0.068599
214.000000	0.070030
213.000000	0.071310
212.000000	0.072895
211.000000	0.074717
210.000000	0.076431
209.000000	0.078125
208.000000	0.080189
207.000000	0.082614
206.000000	0.085151
205.000000	0.087691
204.000000	0.090918
203.000000	0.093952
202.000000	0.097569
201.000000	0.101690
200.000000	0.106227
