PE UV       SUBTECH     SPECTRUM    ASCII       PEDS        4.00        
   -1
KI4-XXA.Sample.Raw.asc
11/05/20
12:47:26.00
11/05/20
12:47:26.00
Hermanni Kaartokallio

200.000000
1
Lambda 650
650N8121101
PerkinElmer UV WinLab 6.0.2.0723 / 1.61.00 Lambda 650

0
0
2
0
0
UV/VIS
1
1
1
uv/vis/nir detector
0
0
0
0
Fix
 
0
0.24
0
0
0
 
 
 
0
 
0
319.2
0
Front
100
 
 
 
0
0
0
 
0
 
 
 
0
 
 
0
0
0
0
0
 
 
 
 
0
0
#HDR
-1
-1
#GR
nm
A
1.0
0.0
800.000000
-1.000000
601
8
1.565245
0.038225
#DATA
800.000000	0.047266
799.000000	0.047122
798.000000	0.047441
797.000000	0.047602
796.000000	0.047452
795.000000	0.047491
794.000000	0.047548
793.000000	0.047673
792.000000	0.047884
791.000000	0.048029
790.000000	0.048201
789.000000	0.048411
788.000000	0.048493
787.000000	0.048489
786.000000	0.048712
785.000000	0.048677
784.000000	0.048683
783.000000	0.048778
782.000000	0.048713
781.000000	0.048743
780.000000	0.048811
779.000000	0.048821
778.000000	0.048577
777.000000	0.048414
776.000000	0.048438
775.000000	0.048420
774.000000	0.048318
773.000000	0.048234
772.000000	0.048293
771.000000	0.048174
770.000000	0.048114
769.000000	0.048195
768.000000	0.048354
767.000000	0.048068
766.000000	0.048183
765.000000	0.048409
764.000000	0.048289
763.000000	0.048299
762.000000	0.048493
761.000000	0.048473
760.000000	0.048385
759.000000	0.048423
758.000000	0.048613
757.000000	0.048588
756.000000	0.048630
755.000000	0.048563
754.000000	0.048573
753.000000	0.048640
752.000000	0.048510
751.000000	0.048670
750.000000	0.048919
749.000000	0.048805
748.000000	0.048658
747.000000	0.048755
746.000000	0.048815
745.000000	0.048724
744.000000	0.048889
743.000000	0.048835
742.000000	0.048725
741.000000	0.048617
740.000000	0.048539
739.000000	0.048436
738.000000	0.048229
737.000000	0.047953
736.000000	0.047712
735.000000	0.047350
734.000000	0.046838
733.000000	0.046476
732.000000	0.046143
731.000000	0.045532
730.000000	0.044996
729.000000	0.044687
728.000000	0.044220
727.000000	0.043831
726.000000	0.043656
725.000000	0.043389
724.000000	0.043003
723.000000	0.042683
722.000000	0.042453
721.000000	0.042242
720.000000	0.041999
719.000000	0.041596
718.000000	0.041303
717.000000	0.040969
716.000000	0.040526
715.000000	0.040328
714.000000	0.040212
713.000000	0.039755
712.000000	0.039402
711.000000	0.039268
710.000000	0.039029
709.000000	0.038850
708.000000	0.038709
707.000000	0.038570
706.000000	0.038449
705.000000	0.038348
704.000000	0.038420
703.000000	0.038481
702.000000	0.038507
701.000000	0.038465
700.000000	0.038445
699.000000	0.038468
698.000000	0.038498
697.000000	0.038526
696.000000	0.038601
695.000000	0.038562
694.000000	0.038437
693.000000	0.038557
692.000000	0.038594
691.000000	0.038590
690.000000	0.038622
689.000000	0.038567
688.000000	0.038512
687.000000	0.038527
686.000000	0.038505
685.000000	0.038418
684.000000	0.038321
683.000000	0.038345
682.000000	0.038474
681.000000	0.038413
680.000000	0.038278
679.000000	0.038326
678.000000	0.038304
677.000000	0.038225
676.000000	0.038325
675.000000	0.038371
674.000000	0.038349
673.000000	0.038387
672.000000	0.038439
671.000000	0.038464
670.000000	0.038535
669.000000	0.038719
668.000000	0.038803
667.000000	0.038865
666.000000	0.038881
665.000000	0.038958
664.000000	0.039157
663.000000	0.039175
662.000000	0.039202
661.000000	0.039325
660.000000	0.039398
659.000000	0.039406
658.000000	0.039552
657.000000	0.039660
656.000000	0.039615
655.000000	0.039586
654.000000	0.039583
653.000000	0.039654
652.000000	0.039688
651.000000	0.039690
650.000000	0.039655
649.000000	0.039616
648.000000	0.039469
647.000000	0.039451
646.000000	0.039511
645.000000	0.039411
644.000000	0.039233
643.000000	0.039164
642.000000	0.039173
641.000000	0.039013
640.000000	0.039057
639.000000	0.038973
638.000000	0.038841
637.000000	0.038755
636.000000	0.038725
635.000000	0.038693
634.000000	0.038811
633.000000	0.038875
632.000000	0.038833
631.000000	0.038940
630.000000	0.038909
629.000000	0.039031
628.000000	0.039164
627.000000	0.039256
626.000000	0.039239
625.000000	0.039333
624.000000	0.039353
623.000000	0.039462
622.000000	0.039604
621.000000	0.039735
620.000000	0.039786
619.000000	0.039742
618.000000	0.039874
617.000000	0.039988
616.000000	0.040108
615.000000	0.040154
614.000000	0.040197
613.000000	0.040158
612.000000	0.040274
611.000000	0.040297
610.000000	0.040546
609.000000	0.040536
608.000000	0.040425
607.000000	0.040496
606.000000	0.040486
605.000000	0.040566
604.000000	0.040720
603.000000	0.040732
602.000000	0.040610
601.000000	0.040651
600.000000	0.040618
599.000000	0.040554
598.000000	0.040775
597.000000	0.040720
596.000000	0.040673
595.000000	0.040763
594.000000	0.040748
593.000000	0.040792
592.000000	0.040795
591.000000	0.040956
590.000000	0.041060
589.000000	0.040968
588.000000	0.040993
587.000000	0.041015
586.000000	0.041088
585.000000	0.041149
584.000000	0.041163
583.000000	0.041132
582.000000	0.041196
581.000000	0.041200
580.000000	0.041280
579.000000	0.041309
578.000000	0.041371
577.000000	0.041285
576.000000	0.041353
575.000000	0.041380
574.000000	0.041396
573.000000	0.041464
572.000000	0.041320
571.000000	0.041383
570.000000	0.041294
569.000000	0.041287
568.000000	0.041265
567.000000	0.041318
566.000000	0.041239
565.000000	0.041105
564.000000	0.041082
563.000000	0.040929
562.000000	0.040875
561.000000	0.040870
560.000000	0.040979
559.000000	0.040942
558.000000	0.040816
557.000000	0.040745
556.000000	0.040653
555.000000	0.040678
554.000000	0.040721
553.000000	0.040599
552.000000	0.040541
551.000000	0.040558
550.000000	0.040569
549.000000	0.040548
548.000000	0.040643
547.000000	0.040658
546.000000	0.040560
545.000000	0.040549
544.000000	0.040562
543.000000	0.040675
542.000000	0.040845
541.000000	0.040827
540.000000	0.040864
539.000000	0.040915
538.000000	0.040918
537.000000	0.041026
536.000000	0.041245
535.000000	0.041305
534.000000	0.041354
533.000000	0.041529
532.000000	0.041567
531.000000	0.041571
530.000000	0.041835
529.000000	0.041896
528.000000	0.041880
527.000000	0.041992
526.000000	0.042110
525.000000	0.042266
524.000000	0.042355
523.000000	0.042413
522.000000	0.042458
521.000000	0.042544
520.000000	0.042639
519.000000	0.042841
518.000000	0.043001
517.000000	0.042990
516.000000	0.043043
515.000000	0.043180
514.000000	0.043262
513.000000	0.043340
512.000000	0.043554
511.000000	0.043716
510.000000	0.043751
509.000000	0.043744
508.000000	0.043871
507.000000	0.044088
506.000000	0.044247
505.000000	0.044360
504.000000	0.044493
503.000000	0.044555
502.000000	0.044565
501.000000	0.044778
500.000000	0.045065
499.000000	0.045079
498.000000	0.045137
497.000000	0.045341
496.000000	0.045470
495.000000	0.045581
494.000000	0.045794
493.000000	0.045949
492.000000	0.045994
491.000000	0.046080
490.000000	0.046294
489.000000	0.046517
488.000000	0.046571
487.000000	0.046582
486.000000	0.046732
485.000000	0.046804
484.000000	0.046863
483.000000	0.047067
482.000000	0.047216
481.000000	0.047180
480.000000	0.047236
479.000000	0.047396
478.000000	0.047463
477.000000	0.047572
476.000000	0.047769
475.000000	0.047874
474.000000	0.047876
473.000000	0.047951
472.000000	0.048082
471.000000	0.048237
470.000000	0.048369
469.000000	0.048437
468.000000	0.048553
467.000000	0.048604
466.000000	0.048620
465.000000	0.048806
464.000000	0.049082
463.000000	0.049174
462.000000	0.049106
461.000000	0.049298
460.000000	0.049440
459.000000	0.049523
458.000000	0.049719
457.000000	0.049832
456.000000	0.049862
455.000000	0.049948
454.000000	0.050116
453.000000	0.050345
452.000000	0.050436
451.000000	0.050468
450.000000	0.050684
449.000000	0.050931
448.000000	0.051028
447.000000	0.051375
446.000000	0.051617
445.000000	0.051655
444.000000	0.051746
443.000000	0.052107
442.000000	0.052352
441.000000	0.052623
440.000000	0.052830
439.000000	0.053036
438.000000	0.053222
437.000000	0.053451
436.000000	0.053667
435.000000	0.054069
434.000000	0.054288
433.000000	0.054494
432.000000	0.054804
431.000000	0.055072
430.000000	0.055279
429.000000	0.055671
428.000000	0.056023
427.000000	0.056235
426.000000	0.056495
425.000000	0.056814
424.000000	0.057194
423.000000	0.057547
422.000000	0.057816
421.000000	0.058140
420.000000	0.058521
419.000000	0.058748
418.000000	0.059112
417.000000	0.059662
416.000000	0.059870
415.000000	0.060120
414.000000	0.060636
413.000000	0.061042
412.000000	0.061317
411.000000	0.061709
410.000000	0.062186
409.000000	0.062545
408.000000	0.062829
407.000000	0.063315
406.000000	0.063839
405.000000	0.064325
404.000000	0.064711
403.000000	0.065191
402.000000	0.065646
401.000000	0.065948
400.000000	0.066465
399.000000	0.067225
398.000000	0.067759
397.000000	0.068166
396.000000	0.068627
395.000000	0.069264
394.000000	0.069733
393.000000	0.070448
392.000000	0.071069
391.000000	0.071591
390.000000	0.072066
389.000000	0.072726
388.000000	0.073441
387.000000	0.074147
386.000000	0.074743
385.000000	0.075371
384.000000	0.076148
383.000000	0.076756
382.000000	0.077393
381.000000	0.078290
380.000000	0.078906
379.000000	0.079534
378.000000	0.080399
377.000000	0.081287
376.000000	0.081870
375.000000	0.082540
374.000000	0.083572
373.000000	0.084284
372.000000	0.085093
371.000000	0.086143
370.000000	0.086864
369.000000	0.087624
368.000000	0.088505
367.000000	0.089460
366.000000	0.090271
365.000000	0.091257
364.000000	0.092149
363.000000	0.093020
362.000000	0.093791
361.000000	0.094743
360.000000	0.095804
359.000000	0.096986
358.000000	0.097759
357.000000	0.098701
356.000000	0.099585
355.000000	0.100639
354.000000	0.101634
353.000000	0.102807
352.000000	0.103842
351.000000	0.104765
350.000000	0.105737
349.000000	0.106694
348.000000	0.107812
347.000000	0.109040
346.000000	0.110097
345.000000	0.111105
344.000000	0.112262
343.000000	0.113387
342.000000	0.114498
341.000000	0.115716
340.000000	0.116844
339.000000	0.117926
338.000000	0.119093
337.000000	0.120363
336.000000	0.121651
335.000000	0.122859
334.000000	0.124184
333.000000	0.125409
332.000000	0.126656
331.000000	0.128030
330.000000	0.129477
329.000000	0.130897
328.000000	0.132255
327.000000	0.133613
326.000000	0.135101
325.000000	0.136486
324.000000	0.138013
323.000000	0.139609
322.000000	0.141063
321.000000	0.142684
320.000000	0.144135
319.000000	0.145684
318.000000	0.147693
317.000000	0.150316
316.000000	0.152016
315.000000	0.153776
314.000000	0.155474
313.000000	0.157228
312.000000	0.159009
311.000000	0.160765
310.000000	0.162668
309.000000	0.164490
308.000000	0.166385
307.000000	0.168339
306.000000	0.170204
305.000000	0.172156
304.000000	0.174205
303.000000	0.176185
302.000000	0.178181
301.000000	0.180331
300.000000	0.182430
299.000000	0.184539
298.000000	0.186825
297.000000	0.189024
296.000000	0.191177
295.000000	0.193482
294.000000	0.195971
293.000000	0.198302
292.000000	0.200655
291.000000	0.203208
290.000000	0.205846
289.000000	0.208358
288.000000	0.210864
287.000000	0.213545
286.000000	0.216234
285.000000	0.218745
284.000000	0.221364
283.000000	0.224087
282.000000	0.226767
281.000000	0.229539
280.000000	0.232321
279.000000	0.234882
278.000000	0.237475
277.000000	0.240210
276.000000	0.243011
275.000000	0.245825
274.000000	0.248657
273.000000	0.251533
272.000000	0.254330
271.000000	0.257087
270.000000	0.259877
269.000000	0.262741
268.000000	0.265464
267.000000	0.268017
266.000000	0.270541
265.000000	0.273179
264.000000	0.275687
263.000000	0.278314
262.000000	0.280883
261.000000	0.283245
260.000000	0.285503
259.000000	0.287783
258.000000	0.290114
257.000000	0.292386
256.000000	0.294573
255.000000	0.296814
254.000000	0.298994
253.000000	0.301100
252.000000	0.303364
251.000000	0.305843
250.000000	0.308215
249.000000	0.310546
248.000000	0.313179
247.000000	0.316034
246.000000	0.318831
245.000000	0.322004
244.000000	0.325231
243.000000	0.328634
242.000000	0.332132
241.000000	0.335943
240.000000	0.339991
239.000000	0.344200
238.000000	0.348488
237.000000	0.353083
236.000000	0.357816
235.000000	0.362674
234.000000	0.367772
233.000000	0.373380
232.000000	0.378988
231.000000	0.384532
230.000000	0.390422
229.000000	0.396059
228.000000	0.402083
227.000000	0.408534
226.000000	0.415414
225.000000	0.422488
224.000000	0.429705
223.000000	0.437757
222.000000	0.446272
221.000000	0.455474
220.000000	0.465334
219.000000	0.475908
218.000000	0.487625
217.000000	0.500789
216.000000	0.515486
215.000000	0.532129
214.000000	0.550912
213.000000	0.572349
212.000000	0.596690
211.000000	0.624894
210.000000	0.656028
209.000000	0.692035
208.000000	0.733559
207.000000	0.781176
206.000000	0.836915
205.000000	0.902368
204.000000	0.981210
203.000000	1.078515
202.000000	1.200207
201.000000	1.358054
200.000000	1.565245
