PE UV       SUBTECH     SPECTRUM    ASCII       PEDS        4.00        
   -1
KI4-04B.Sample.Raw.asc
11/05/20
12:42:53.00
11/05/20
12:42:53.00
Hermanni Kaartokallio

200.000000
1
Lambda 650
650N8121101
PerkinElmer UV WinLab 6.0.2.0723 / 1.61.00 Lambda 650

0
0
2
0
0
UV/VIS
1
1
1
uv/vis/nir detector
0
0
0
0
Fix
 
0
0.24
0
0
0
 
 
 
0
 
0
319.2
0
Front
100
 
 
 
0
0
0
 
0
 
 
 
0
 
 
0
0
0
0
0
 
 
 
 
0
0
#HDR
-1
-1
#GR
nm
A
1.0
0.0
800.000000
-1.000000
601
8
1.697983
0.037104
#DATA
800.000000	0.046674
799.000000	0.046612
798.000000	0.046998
797.000000	0.047174
796.000000	0.046898
795.000000	0.046980
794.000000	0.047019
793.000000	0.047229
792.000000	0.047342
791.000000	0.047426
790.000000	0.047730
789.000000	0.047764
788.000000	0.047899
787.000000	0.047897
786.000000	0.048102
785.000000	0.048122
784.000000	0.048129
783.000000	0.048147
782.000000	0.048164
781.000000	0.048064
780.000000	0.048127
779.000000	0.048154
778.000000	0.047903
777.000000	0.047676
776.000000	0.047681
775.000000	0.047700
774.000000	0.047695
773.000000	0.047625
772.000000	0.047598
771.000000	0.047509
770.000000	0.047339
769.000000	0.047451
768.000000	0.047572
767.000000	0.047365
766.000000	0.047272
765.000000	0.047528
764.000000	0.047478
763.000000	0.047452
762.000000	0.047489
761.000000	0.047409
760.000000	0.047415
759.000000	0.047273
758.000000	0.047358
757.000000	0.047447
756.000000	0.047410
755.000000	0.047401
754.000000	0.047376
753.000000	0.047359
752.000000	0.047270
751.000000	0.047393
750.000000	0.047659
749.000000	0.047626
748.000000	0.047450
747.000000	0.047583
746.000000	0.047576
745.000000	0.047506
744.000000	0.047619
743.000000	0.047680
742.000000	0.047583
741.000000	0.047546
740.000000	0.047487
739.000000	0.047394
738.000000	0.047100
737.000000	0.046848
736.000000	0.046652
735.000000	0.046382
734.000000	0.046015
733.000000	0.045558
732.000000	0.045135
731.000000	0.044631
730.000000	0.044126
729.000000	0.043778
728.000000	0.043403
727.000000	0.043027
726.000000	0.042779
725.000000	0.042533
724.000000	0.042131
723.000000	0.041799
722.000000	0.041628
721.000000	0.041451
720.000000	0.041157
719.000000	0.040840
718.000000	0.040524
717.000000	0.040194
716.000000	0.039805
715.000000	0.039619
714.000000	0.039431
713.000000	0.039017
712.000000	0.038666
711.000000	0.038438
710.000000	0.038224
709.000000	0.038028
708.000000	0.037873
707.000000	0.037730
706.000000	0.037536
705.000000	0.037368
704.000000	0.037409
703.000000	0.037458
702.000000	0.037506
701.000000	0.037474
700.000000	0.037404
699.000000	0.037423
698.000000	0.037379
697.000000	0.037329
696.000000	0.037442
695.000000	0.037427
694.000000	0.037284
693.000000	0.037368
692.000000	0.037377
691.000000	0.037360
690.000000	0.037424
689.000000	0.037464
688.000000	0.037407
687.000000	0.037416
686.000000	0.037426
685.000000	0.037368
684.000000	0.037347
683.000000	0.037341
682.000000	0.037357
681.000000	0.037269
680.000000	0.037194
679.000000	0.037266
678.000000	0.037212
677.000000	0.037104
676.000000	0.037235
675.000000	0.037273
674.000000	0.037231
673.000000	0.037255
672.000000	0.037341
671.000000	0.037347
670.000000	0.037409
669.000000	0.037554
668.000000	0.037626
667.000000	0.037713
666.000000	0.037707
665.000000	0.037763
664.000000	0.038013
663.000000	0.038075
662.000000	0.038019
661.000000	0.038144
660.000000	0.038235
659.000000	0.038279
658.000000	0.038426
657.000000	0.038485
656.000000	0.038451
655.000000	0.038432
654.000000	0.038470
653.000000	0.038528
652.000000	0.038552
651.000000	0.038529
650.000000	0.038453
649.000000	0.038394
648.000000	0.038290
647.000000	0.038253
646.000000	0.038297
645.000000	0.038170
644.000000	0.038066
643.000000	0.038004
642.000000	0.037947
641.000000	0.037772
640.000000	0.037815
639.000000	0.037761
638.000000	0.037613
637.000000	0.037474
636.000000	0.037413
635.000000	0.037370
634.000000	0.037449
633.000000	0.037507
632.000000	0.037477
631.000000	0.037568
630.000000	0.037535
629.000000	0.037607
628.000000	0.037791
627.000000	0.037843
626.000000	0.037842
625.000000	0.037907
624.000000	0.037995
623.000000	0.037998
622.000000	0.038204
621.000000	0.038271
620.000000	0.038303
619.000000	0.038282
618.000000	0.038365
617.000000	0.038514
616.000000	0.038616
615.000000	0.038723
614.000000	0.038712
613.000000	0.038676
612.000000	0.038738
611.000000	0.038759
610.000000	0.038962
609.000000	0.038906
608.000000	0.038824
607.000000	0.038877
606.000000	0.038821
605.000000	0.038945
604.000000	0.039066
603.000000	0.039056
602.000000	0.038908
601.000000	0.038993
600.000000	0.038938
599.000000	0.038915
598.000000	0.039044
597.000000	0.039035
596.000000	0.038929
595.000000	0.038978
594.000000	0.038992
593.000000	0.038935
592.000000	0.039103
591.000000	0.039151
590.000000	0.039226
589.000000	0.039132
588.000000	0.039140
587.000000	0.039168
586.000000	0.039190
585.000000	0.039331
584.000000	0.039326
583.000000	0.039250
582.000000	0.039271
581.000000	0.039261
580.000000	0.039330
579.000000	0.039368
578.000000	0.039429
577.000000	0.039364
576.000000	0.039363
575.000000	0.039423
574.000000	0.039355
573.000000	0.039382
572.000000	0.039352
571.000000	0.039304
570.000000	0.039237
569.000000	0.039181
568.000000	0.039105
567.000000	0.039159
566.000000	0.039093
565.000000	0.038906
564.000000	0.038811
563.000000	0.038713
562.000000	0.038604
561.000000	0.038628
560.000000	0.038667
559.000000	0.038523
558.000000	0.038469
557.000000	0.038324
556.000000	0.038261
555.000000	0.038322
554.000000	0.038456
553.000000	0.038354
552.000000	0.038261
551.000000	0.038271
550.000000	0.038211
549.000000	0.038103
548.000000	0.038226
547.000000	0.038147
546.000000	0.038084
545.000000	0.038042
544.000000	0.038051
543.000000	0.038155
542.000000	0.038238
541.000000	0.038201
540.000000	0.038208
539.000000	0.038192
538.000000	0.038198
537.000000	0.038330
536.000000	0.038483
535.000000	0.038393
534.000000	0.038380
533.000000	0.038510
532.000000	0.038568
531.000000	0.038604
530.000000	0.038768
529.000000	0.038839
528.000000	0.038804
527.000000	0.038820
526.000000	0.038894
525.000000	0.039044
524.000000	0.039089
523.000000	0.039116
522.000000	0.039100
521.000000	0.039146
520.000000	0.039238
519.000000	0.039370
518.000000	0.039517
517.000000	0.039470
516.000000	0.039490
515.000000	0.039631
514.000000	0.039660
513.000000	0.039690
512.000000	0.039862
511.000000	0.039975
510.000000	0.039987
509.000000	0.039948
508.000000	0.040041
507.000000	0.040279
506.000000	0.040383
505.000000	0.040392
504.000000	0.040468
503.000000	0.040500
502.000000	0.040505
501.000000	0.040635
500.000000	0.040849
499.000000	0.040864
498.000000	0.040934
497.000000	0.041091
496.000000	0.041173
495.000000	0.041221
494.000000	0.041368
493.000000	0.041469
492.000000	0.041484
491.000000	0.041555
490.000000	0.041671
489.000000	0.041887
488.000000	0.041868
487.000000	0.041785
486.000000	0.041925
485.000000	0.041991
484.000000	0.042035
483.000000	0.042178
482.000000	0.042246
481.000000	0.042106
480.000000	0.042095
479.000000	0.042209
478.000000	0.042270
477.000000	0.042355
476.000000	0.042506
475.000000	0.042561
474.000000	0.042510
473.000000	0.042559
472.000000	0.042669
471.000000	0.042820
470.000000	0.042864
469.000000	0.042822
468.000000	0.042908
467.000000	0.042962
466.000000	0.042931
465.000000	0.043097
464.000000	0.043285
463.000000	0.043282
462.000000	0.043133
461.000000	0.043212
460.000000	0.043346
459.000000	0.043357
458.000000	0.043470
457.000000	0.043533
456.000000	0.043504
455.000000	0.043461
454.000000	0.043487
453.000000	0.043725
452.000000	0.043730
451.000000	0.043677
450.000000	0.043776
449.000000	0.043889
448.000000	0.043916
447.000000	0.044191
446.000000	0.044198
445.000000	0.044252
444.000000	0.044279
443.000000	0.044531
442.000000	0.044619
441.000000	0.044755
440.000000	0.044766
439.000000	0.044900
438.000000	0.045065
437.000000	0.045049
436.000000	0.045226
435.000000	0.045544
434.000000	0.045610
433.000000	0.045633
432.000000	0.045786
431.000000	0.045936
430.000000	0.046039
429.000000	0.046350
428.000000	0.046464
427.000000	0.046616
426.000000	0.046753
425.000000	0.046862
424.000000	0.047132
423.000000	0.047291
422.000000	0.047559
421.000000	0.047647
420.000000	0.047780
419.000000	0.047889
418.000000	0.048067
417.000000	0.048382
416.000000	0.048534
415.000000	0.048528
414.000000	0.048912
413.000000	0.049148
412.000000	0.049297
411.000000	0.049545
410.000000	0.049843
409.000000	0.049976
408.000000	0.050140
407.000000	0.050322
406.000000	0.050633
405.000000	0.050852
404.000000	0.051059
403.000000	0.051443
402.000000	0.051615
401.000000	0.051730
400.000000	0.052003
399.000000	0.052579
398.000000	0.052785
397.000000	0.052931
396.000000	0.053288
395.000000	0.053583
394.000000	0.053815
393.000000	0.054212
392.000000	0.054593
391.000000	0.054904
390.000000	0.055118
389.000000	0.055535
388.000000	0.055827
387.000000	0.056309
386.000000	0.056591
385.000000	0.057074
384.000000	0.057420
383.000000	0.057744
382.000000	0.058075
381.000000	0.058683
380.000000	0.059058
379.000000	0.059301
378.000000	0.059946
377.000000	0.060164
376.000000	0.060721
375.000000	0.060991
374.000000	0.061587
373.000000	0.061956
372.000000	0.062379
371.000000	0.063111
370.000000	0.063484
369.000000	0.063836
368.000000	0.064256
367.000000	0.064747
366.000000	0.065275
365.000000	0.065851
364.000000	0.066246
363.000000	0.066885
362.000000	0.067334
361.000000	0.067818
360.000000	0.068504
359.000000	0.069046
358.000000	0.069632
357.000000	0.070047
356.000000	0.070556
355.000000	0.071114
354.000000	0.071688
353.000000	0.072404
352.000000	0.072881
351.000000	0.073329
350.000000	0.073941
349.000000	0.074454
348.000000	0.075114
347.000000	0.075791
346.000000	0.076408
345.000000	0.076927
344.000000	0.077564
343.000000	0.078211
342.000000	0.078865
341.000000	0.079540
340.000000	0.080161
339.000000	0.080831
338.000000	0.081442
337.000000	0.082146
336.000000	0.082833
335.000000	0.083673
334.000000	0.084452
333.000000	0.085091
332.000000	0.085824
331.000000	0.086711
330.000000	0.087594
329.000000	0.088365
328.000000	0.089285
327.000000	0.090137
326.000000	0.090909
325.000000	0.091764
324.000000	0.092709
323.000000	0.093732
322.000000	0.094547
321.000000	0.095537
320.000000	0.096491
319.000000	0.097523
318.000000	0.098949
317.000000	0.100915
316.000000	0.102063
315.000000	0.103100
314.000000	0.104125
313.000000	0.105290
312.000000	0.106386
311.000000	0.107567
310.000000	0.108881
309.000000	0.110056
308.000000	0.111262
307.000000	0.112602
306.000000	0.113815
305.000000	0.115094
304.000000	0.116518
303.000000	0.117754
302.000000	0.119065
301.000000	0.120595
300.000000	0.121993
299.000000	0.123430
298.000000	0.124996
297.000000	0.126509
296.000000	0.127993
295.000000	0.129645
294.000000	0.131352
293.000000	0.133035
292.000000	0.134728
291.000000	0.136508
290.000000	0.138362
289.000000	0.140170
288.000000	0.141995
287.000000	0.143929
286.000000	0.145813
285.000000	0.147572
284.000000	0.149455
283.000000	0.151375
282.000000	0.153230
281.000000	0.155217
280.000000	0.157308
279.000000	0.159227
278.000000	0.161103
277.000000	0.163030
276.000000	0.164953
275.000000	0.167003
274.000000	0.169054
273.000000	0.171122
272.000000	0.173191
271.000000	0.175129
270.000000	0.177104
269.000000	0.179147
268.000000	0.181038
267.000000	0.182881
266.000000	0.184693
265.000000	0.186573
264.000000	0.188327
263.000000	0.190092
262.000000	0.191867
261.000000	0.193457
260.000000	0.194995
259.000000	0.196498
258.000000	0.198081
257.000000	0.199592
256.000000	0.201061
255.000000	0.202552
254.000000	0.204022
253.000000	0.205454
252.000000	0.206899
251.000000	0.208634
250.000000	0.210230
249.000000	0.211825
248.000000	0.213569
247.000000	0.215464
246.000000	0.217368
245.000000	0.219498
244.000000	0.221792
243.000000	0.224179
242.000000	0.226535
241.000000	0.229238
240.000000	0.232120
239.000000	0.235146
238.000000	0.238322
237.000000	0.241690
236.000000	0.245288
235.000000	0.248963
234.000000	0.252864
233.000000	0.257188
232.000000	0.261571
231.000000	0.266052
230.000000	0.270869
229.000000	0.275791
228.000000	0.280978
227.000000	0.286737
226.000000	0.292882
225.000000	0.299214
224.000000	0.305991
223.000000	0.313740
222.000000	0.322270
221.000000	0.331460
220.000000	0.341553
219.000000	0.352732
218.000000	0.365153
217.000000	0.379327
216.000000	0.395168
215.000000	0.413628
214.000000	0.435107
213.000000	0.459897
212.000000	0.488601
211.000000	0.521942
210.000000	0.560201
209.000000	0.604117
208.000000	0.654691
207.000000	0.713818
206.000000	0.783583
205.000000	0.865850
204.000000	0.965015
203.000000	1.088006
202.000000	1.241805
201.000000	1.439260
200.000000	1.697983
