PE UV       SUBTECH     SPECTRUM    ASCII       PEDS        4.00        
   -1
KI4-XXB.Sample.Raw.asc
11/05/20
12:51:44.00
11/05/20
12:51:44.00
Hermanni Kaartokallio

200.000000
1
Lambda 650
650N8121101
PerkinElmer UV WinLab 6.0.2.0723 / 1.61.00 Lambda 650

0
0
2
0
0
UV/VIS
1
1
1
uv/vis/nir detector
0
0
0
0
Fix
 
0
0.24
0
0
0
 
 
 
0
 
0
319.2
0
Front
100
 
 
 
0
0
0
 
0
 
 
 
0
 
 
0
0
0
0
0
 
 
 
 
0
0
#HDR
-1
-1
#GR
nm
A
1.0
0.0
800.000000
-1.000000
601
8
1.653550
0.037374
#DATA
800.000000	0.046633
799.000000	0.046633
798.000000	0.046897
797.000000	0.047030
796.000000	0.046890
795.000000	0.046967
794.000000	0.046945
793.000000	0.047148
792.000000	0.047418
791.000000	0.047487
790.000000	0.047648
789.000000	0.047745
788.000000	0.047983
787.000000	0.047876
786.000000	0.048065
785.000000	0.048025
784.000000	0.048051
783.000000	0.048016
782.000000	0.047925
781.000000	0.048071
780.000000	0.048127
779.000000	0.047991
778.000000	0.047824
777.000000	0.047733
776.000000	0.047659
775.000000	0.047668
774.000000	0.047734
773.000000	0.047663
772.000000	0.047517
771.000000	0.047366
770.000000	0.047428
769.000000	0.047431
768.000000	0.047548
767.000000	0.047386
766.000000	0.047434
765.000000	0.047582
764.000000	0.047508
763.000000	0.047653
762.000000	0.047782
761.000000	0.047734
760.000000	0.047764
759.000000	0.047784
758.000000	0.047868
757.000000	0.047964
756.000000	0.047986
755.000000	0.047973
754.000000	0.047896
753.000000	0.048037
752.000000	0.047942
751.000000	0.047919
750.000000	0.048151
749.000000	0.048027
748.000000	0.048003
747.000000	0.048041
746.000000	0.048046
745.000000	0.048050
744.000000	0.048202
743.000000	0.048096
742.000000	0.047888
741.000000	0.047896
740.000000	0.047757
739.000000	0.047629
738.000000	0.047520
737.000000	0.047285
736.000000	0.047022
735.000000	0.046656
734.000000	0.046252
733.000000	0.045885
732.000000	0.045447
731.000000	0.044913
730.000000	0.044484
729.000000	0.044089
728.000000	0.043573
727.000000	0.043219
726.000000	0.043124
725.000000	0.042771
724.000000	0.042291
723.000000	0.041996
722.000000	0.041803
721.000000	0.041535
720.000000	0.041278
719.000000	0.040971
718.000000	0.040600
717.000000	0.040244
716.000000	0.039847
715.000000	0.039657
714.000000	0.039470
713.000000	0.039059
712.000000	0.038745
711.000000	0.038527
710.000000	0.038227
709.000000	0.038105
708.000000	0.038001
707.000000	0.037785
706.000000	0.037624
705.000000	0.037541
704.000000	0.037589
703.000000	0.037642
702.000000	0.037693
701.000000	0.037702
700.000000	0.037671
699.000000	0.037632
698.000000	0.037652
697.000000	0.037694
696.000000	0.037781
695.000000	0.037729
694.000000	0.037713
693.000000	0.037821
692.000000	0.037724
691.000000	0.037741
690.000000	0.037846
689.000000	0.037745
688.000000	0.037722
687.000000	0.037777
686.000000	0.037628
685.000000	0.037529
684.000000	0.037544
683.000000	0.037527
682.000000	0.037563
681.000000	0.037526
680.000000	0.037461
679.000000	0.037481
678.000000	0.037416
677.000000	0.037374
676.000000	0.037482
675.000000	0.037497
674.000000	0.037461
673.000000	0.037537
672.000000	0.037672
671.000000	0.037612
670.000000	0.037655
669.000000	0.037819
668.000000	0.037872
667.000000	0.037914
666.000000	0.037916
665.000000	0.037995
664.000000	0.038221
663.000000	0.038290
662.000000	0.038298
661.000000	0.038426
660.000000	0.038407
659.000000	0.038387
658.000000	0.038605
657.000000	0.038682
656.000000	0.038616
655.000000	0.038630
654.000000	0.038687
653.000000	0.038685
652.000000	0.038712
651.000000	0.038752
650.000000	0.038641
649.000000	0.038591
648.000000	0.038517
647.000000	0.038511
646.000000	0.038551
645.000000	0.038347
644.000000	0.038225
643.000000	0.038244
642.000000	0.038162
641.000000	0.037906
640.000000	0.037985
639.000000	0.037951
638.000000	0.037722
637.000000	0.037690
636.000000	0.037681
635.000000	0.037597
634.000000	0.037755
633.000000	0.037784
632.000000	0.037756
631.000000	0.037791
630.000000	0.037691
629.000000	0.037967
628.000000	0.038122
627.000000	0.038113
626.000000	0.038102
625.000000	0.038226
624.000000	0.038225
623.000000	0.038238
622.000000	0.038507
621.000000	0.038578
620.000000	0.038530
619.000000	0.038542
618.000000	0.038698
617.000000	0.038768
616.000000	0.038886
615.000000	0.039016
614.000000	0.039007
613.000000	0.038911
612.000000	0.039140
611.000000	0.039034
610.000000	0.039268
609.000000	0.039169
608.000000	0.039055
607.000000	0.039200
606.000000	0.039209
605.000000	0.039271
604.000000	0.039380
603.000000	0.039392
602.000000	0.039253
601.000000	0.039293
600.000000	0.039234
599.000000	0.039259
598.000000	0.039420
597.000000	0.039330
596.000000	0.039308
595.000000	0.039321
594.000000	0.039334
593.000000	0.039288
592.000000	0.039404
591.000000	0.039474
590.000000	0.039556
589.000000	0.039474
588.000000	0.039555
587.000000	0.039489
586.000000	0.039512
585.000000	0.039665
584.000000	0.039661
583.000000	0.039543
582.000000	0.039625
581.000000	0.039637
580.000000	0.039671
579.000000	0.039723
578.000000	0.039796
577.000000	0.039714
576.000000	0.039679
575.000000	0.039765
574.000000	0.039680
573.000000	0.039670
572.000000	0.039513
571.000000	0.039665
570.000000	0.039615
569.000000	0.039509
568.000000	0.039479
567.000000	0.039685
566.000000	0.039366
565.000000	0.039223
564.000000	0.039268
563.000000	0.039191
562.000000	0.039124
561.000000	0.039046
560.000000	0.039201
559.000000	0.039113
558.000000	0.038968
557.000000	0.038951
556.000000	0.038879
555.000000	0.038855
554.000000	0.038892
553.000000	0.038765
552.000000	0.038722
551.000000	0.038697
550.000000	0.038743
549.000000	0.038686
548.000000	0.038697
547.000000	0.038661
546.000000	0.038581
545.000000	0.038523
544.000000	0.038548
543.000000	0.038614
542.000000	0.038753
541.000000	0.038730
540.000000	0.038630
539.000000	0.038682
538.000000	0.038719
537.000000	0.038782
536.000000	0.038940
535.000000	0.038899
534.000000	0.038933
533.000000	0.039028
532.000000	0.039110
531.000000	0.039205
530.000000	0.039311
529.000000	0.039330
528.000000	0.039300
527.000000	0.039386
526.000000	0.039426
525.000000	0.039535
524.000000	0.039658
523.000000	0.039693
522.000000	0.039660
521.000000	0.039723
520.000000	0.039822
519.000000	0.039969
518.000000	0.040124
517.000000	0.040140
516.000000	0.040154
515.000000	0.040258
514.000000	0.040261
513.000000	0.040365
512.000000	0.040560
511.000000	0.040601
510.000000	0.040628
509.000000	0.040659
508.000000	0.040714
507.000000	0.040891
506.000000	0.041046
505.000000	0.041094
504.000000	0.041146
503.000000	0.041155
502.000000	0.041209
501.000000	0.041411
500.000000	0.041605
499.000000	0.041617
498.000000	0.041657
497.000000	0.041819
496.000000	0.041903
495.000000	0.042019
494.000000	0.042181
493.000000	0.042207
492.000000	0.042233
491.000000	0.042385
490.000000	0.042487
489.000000	0.042612
488.000000	0.042716
487.000000	0.042727
486.000000	0.042791
485.000000	0.042843
484.000000	0.042941
483.000000	0.043071
482.000000	0.043130
481.000000	0.043071
480.000000	0.043129
479.000000	0.043197
478.000000	0.043200
477.000000	0.043350
476.000000	0.043530
475.000000	0.043506
474.000000	0.043453
473.000000	0.043562
472.000000	0.043683
471.000000	0.043775
470.000000	0.043859
469.000000	0.043880
468.000000	0.043929
467.000000	0.043925
466.000000	0.043984
465.000000	0.044159
464.000000	0.044333
463.000000	0.044415
462.000000	0.044346
461.000000	0.044440
460.000000	0.044468
459.000000	0.044550
458.000000	0.044713
457.000000	0.044754
456.000000	0.044695
455.000000	0.044771
454.000000	0.044863
453.000000	0.044993
452.000000	0.045065
451.000000	0.045140
450.000000	0.045221
449.000000	0.045272
448.000000	0.045373
447.000000	0.045631
446.000000	0.045762
445.000000	0.045696
444.000000	0.045782
443.000000	0.046009
442.000000	0.046076
441.000000	0.046349
440.000000	0.046438
439.000000	0.046536
438.000000	0.046649
437.000000	0.046805
436.000000	0.046971
435.000000	0.047246
434.000000	0.047331
433.000000	0.047453
432.000000	0.047633
431.000000	0.047768
430.000000	0.047843
429.000000	0.048217
428.000000	0.048436
427.000000	0.048417
426.000000	0.048700
425.000000	0.048901
424.000000	0.049089
423.000000	0.049335
422.000000	0.049587
421.000000	0.049736
420.000000	0.049852
419.000000	0.050041
418.000000	0.050401
417.000000	0.050639
416.000000	0.050733
415.000000	0.050856
414.000000	0.051248
413.000000	0.051465
412.000000	0.051685
411.000000	0.052079
410.000000	0.052354
409.000000	0.052454
408.000000	0.052811
407.000000	0.053028
406.000000	0.053333
405.000000	0.053575
404.000000	0.053866
403.000000	0.054242
402.000000	0.054371
401.000000	0.054623
400.000000	0.055123
399.000000	0.055545
398.000000	0.055752
397.000000	0.056033
396.000000	0.056416
395.000000	0.056768
394.000000	0.057098
393.000000	0.057668
392.000000	0.058024
391.000000	0.058204
390.000000	0.058516
389.000000	0.059105
388.000000	0.059506
387.000000	0.059975
386.000000	0.060341
385.000000	0.060836
384.000000	0.061325
383.000000	0.061778
382.000000	0.062209
381.000000	0.062912
380.000000	0.063106
379.000000	0.063497
378.000000	0.064155
377.000000	0.064629
376.000000	0.065054
375.000000	0.065517
374.000000	0.066204
373.000000	0.066613
372.000000	0.067136
371.000000	0.068084
370.000000	0.068316
369.000000	0.068785
368.000000	0.069488
367.000000	0.070067
366.000000	0.070543
365.000000	0.071202
364.000000	0.071687
363.000000	0.072322
362.000000	0.072773
361.000000	0.073468
360.000000	0.074306
359.000000	0.074969
358.000000	0.075431
357.000000	0.076013
356.000000	0.076681
355.000000	0.077266
354.000000	0.077970
353.000000	0.078953
352.000000	0.079488
351.000000	0.080010
350.000000	0.080666
349.000000	0.081387
348.000000	0.082058
347.000000	0.082862
346.000000	0.083540
345.000000	0.084188
344.000000	0.084851
343.000000	0.085599
342.000000	0.086483
341.000000	0.087253
340.000000	0.087847
339.000000	0.088709
338.000000	0.089538
337.000000	0.090355
336.000000	0.091170
335.000000	0.092187
334.000000	0.092914
333.000000	0.093690
332.000000	0.094561
331.000000	0.095663
330.000000	0.096595
329.000000	0.097538
328.000000	0.098516
327.000000	0.099463
326.000000	0.100303
325.000000	0.101358
324.000000	0.102482
323.000000	0.103645
322.000000	0.104527
321.000000	0.105767
320.000000	0.106879
319.000000	0.107943
318.000000	0.109462
317.000000	0.111588
316.000000	0.112759
315.000000	0.114080
314.000000	0.115295
313.000000	0.116516
312.000000	0.117859
311.000000	0.119199
310.000000	0.120623
309.000000	0.121901
308.000000	0.123284
307.000000	0.124798
306.000000	0.126160
305.000000	0.127595
304.000000	0.129121
303.000000	0.130615
302.000000	0.132086
301.000000	0.133742
300.000000	0.135397
299.000000	0.136962
298.000000	0.138605
297.000000	0.140319
296.000000	0.142015
295.000000	0.143756
294.000000	0.145641
293.000000	0.147610
292.000000	0.149511
291.000000	0.151391
290.000000	0.153377
289.000000	0.155332
288.000000	0.157290
287.000000	0.159341
286.000000	0.161472
285.000000	0.163524
284.000000	0.165568
283.000000	0.167664
282.000000	0.169791
281.000000	0.171942
280.000000	0.174154
279.000000	0.176211
278.000000	0.178280
277.000000	0.180420
276.000000	0.182525
275.000000	0.184808
274.000000	0.187083
273.000000	0.189225
272.000000	0.191424
271.000000	0.193646
270.000000	0.195781
269.000000	0.198034
268.000000	0.200181
267.000000	0.202243
266.000000	0.204261
265.000000	0.206279
264.000000	0.208252
263.000000	0.210217
262.000000	0.212072
261.000000	0.213904
260.000000	0.215691
259.000000	0.217284
258.000000	0.218935
257.000000	0.220739
256.000000	0.222454
255.000000	0.223975
254.000000	0.225541
253.000000	0.227198
252.000000	0.228877
251.000000	0.230743
250.000000	0.232505
249.000000	0.234347
248.000000	0.236230
247.000000	0.238334
246.000000	0.240486
245.000000	0.242872
244.000000	0.245301
243.000000	0.247939
242.000000	0.250644
241.000000	0.253621
240.000000	0.256681
239.000000	0.260005
238.000000	0.263516
237.000000	0.267118
236.000000	0.270950
235.000000	0.274978
234.000000	0.279094
233.000000	0.283731
232.000000	0.288338
231.000000	0.293042
230.000000	0.298024
229.000000	0.303103
228.000000	0.308575
227.000000	0.314500
226.000000	0.320720
225.000000	0.327184
224.000000	0.334114
223.000000	0.341659
222.000000	0.349788
221.000000	0.358826
220.000000	0.368506
219.000000	0.379397
218.000000	0.391284
217.000000	0.404659
216.000000	0.420038
215.000000	0.437816
214.000000	0.458447
213.000000	0.482131
212.000000	0.509281
211.000000	0.540850
210.000000	0.577071
209.000000	0.618768
208.000000	0.666435
207.000000	0.721893
206.000000	0.787531
205.000000	0.864949
204.000000	0.958405
203.000000	1.074931
202.000000	1.220317
201.000000	1.407313
200.000000	1.653550
