PE UV       SUBTECH     SPECTRUM    ASCII       PEDS        4.00        
   -1
KI4-01B.Sample.Raw.asc
11/05/20
12:15:51.00
11/05/20
12:15:51.00
Hermanni Kaartokallio

200.000000
1
Lambda 650
650N8121101
PerkinElmer UV WinLab 6.0.2.0723 / 1.61.00 Lambda 650

0
0
2
0
0
UV/VIS
1
1
1
uv/vis/nir detector
0
0
0
0
Fix
 
0
0.24
0
0
0
 
 
 
0
 
0
319.2
0
Front
100
 
 
 
0
0
0
 
0
 
 
 
0
 
 
0
0
0
0
0
 
 
 
 
0
0
#HDR
-1
-1
#GR
nm
A
1.0
0.0
800.000000
-1.000000
601
8
1.546765
0.038439
#DATA
800.000000	0.047251
799.000000	0.047144
798.000000	0.047412
797.000000	0.047513
796.000000	0.047465
795.000000	0.047470
794.000000	0.047440
793.000000	0.047814
792.000000	0.047891
791.000000	0.047955
790.000000	0.048288
789.000000	0.048284
788.000000	0.048337
787.000000	0.048386
786.000000	0.048555
785.000000	0.048722
784.000000	0.048610
783.000000	0.048747
782.000000	0.048648
781.000000	0.048728
780.000000	0.048623
779.000000	0.048700
778.000000	0.048656
777.000000	0.048414
776.000000	0.048361
775.000000	0.048443
774.000000	0.048250
773.000000	0.048266
772.000000	0.048314
771.000000	0.048245
770.000000	0.048128
769.000000	0.048088
768.000000	0.048239
767.000000	0.048201
766.000000	0.048116
765.000000	0.048268
764.000000	0.048315
763.000000	0.048418
762.000000	0.048363
761.000000	0.048505
760.000000	0.048528
759.000000	0.048469
758.000000	0.048502
757.000000	0.048627
756.000000	0.048571
755.000000	0.048600
754.000000	0.048558
753.000000	0.048676
752.000000	0.048498
751.000000	0.048510
750.000000	0.048783
749.000000	0.048776
748.000000	0.048578
747.000000	0.048679
746.000000	0.048774
745.000000	0.048745
744.000000	0.048674
743.000000	0.048676
742.000000	0.048636
741.000000	0.048546
740.000000	0.048471
739.000000	0.048346
738.000000	0.048220
737.000000	0.047950
736.000000	0.047655
735.000000	0.047367
734.000000	0.046994
733.000000	0.046472
732.000000	0.046048
731.000000	0.045646
730.000000	0.045204
729.000000	0.044809
728.000000	0.044414
727.000000	0.044008
726.000000	0.043760
725.000000	0.043524
724.000000	0.043225
723.000000	0.042900
722.000000	0.042657
721.000000	0.042423
720.000000	0.042153
719.000000	0.041826
718.000000	0.041451
717.000000	0.041156
716.000000	0.040793
715.000000	0.040526
714.000000	0.040353
713.000000	0.040076
712.000000	0.039726
711.000000	0.039473
710.000000	0.039247
709.000000	0.039089
708.000000	0.038924
707.000000	0.038793
706.000000	0.038720
705.000000	0.038602
704.000000	0.038569
703.000000	0.038584
702.000000	0.038535
701.000000	0.038439
700.000000	0.038453
699.000000	0.038510
698.000000	0.038573
697.000000	0.038543
696.000000	0.038646
695.000000	0.038758
694.000000	0.038655
693.000000	0.038687
692.000000	0.038741
691.000000	0.038747
690.000000	0.038723
689.000000	0.038785
688.000000	0.038812
687.000000	0.038809
686.000000	0.038727
685.000000	0.038657
684.000000	0.038632
683.000000	0.038610
682.000000	0.038610
681.000000	0.038593
680.000000	0.038566
679.000000	0.038549
678.000000	0.038518
677.000000	0.038475
676.000000	0.038543
675.000000	0.038623
674.000000	0.038591
673.000000	0.038688
672.000000	0.038753
671.000000	0.038713
670.000000	0.038760
669.000000	0.038912
668.000000	0.038991
667.000000	0.039105
666.000000	0.039105
665.000000	0.039166
664.000000	0.039311
663.000000	0.039386
662.000000	0.039466
661.000000	0.039526
660.000000	0.039606
659.000000	0.039650
658.000000	0.039749
657.000000	0.039873
656.000000	0.039847
655.000000	0.039916
654.000000	0.039941
653.000000	0.039951
652.000000	0.040006
651.000000	0.040090
650.000000	0.040012
649.000000	0.039983
648.000000	0.039925
647.000000	0.039865
646.000000	0.039877
645.000000	0.039842
644.000000	0.039712
643.000000	0.039639
642.000000	0.039594
641.000000	0.039455
640.000000	0.039435
639.000000	0.039429
638.000000	0.039286
637.000000	0.039265
636.000000	0.039180
635.000000	0.039097
634.000000	0.039199
633.000000	0.039375
632.000000	0.039330
631.000000	0.039396
630.000000	0.039493
629.000000	0.039587
628.000000	0.039558
627.000000	0.039687
626.000000	0.039755
625.000000	0.039857
624.000000	0.039831
623.000000	0.039918
622.000000	0.040084
621.000000	0.040240
620.000000	0.040304
619.000000	0.040344
618.000000	0.040456
617.000000	0.040462
616.000000	0.040541
615.000000	0.040720
614.000000	0.040729
613.000000	0.040621
612.000000	0.040766
611.000000	0.040888
610.000000	0.040969
609.000000	0.041061
608.000000	0.041056
607.000000	0.041202
606.000000	0.041094
605.000000	0.041189
604.000000	0.041286
603.000000	0.041334
602.000000	0.041181
601.000000	0.041307
600.000000	0.041340
599.000000	0.041190
598.000000	0.041304
597.000000	0.041440
596.000000	0.041325
595.000000	0.041315
594.000000	0.041417
593.000000	0.041501
592.000000	0.041508
591.000000	0.041533
590.000000	0.041754
589.000000	0.041671
588.000000	0.041649
587.000000	0.041720
586.000000	0.041799
585.000000	0.041848
584.000000	0.041889
583.000000	0.041851
582.000000	0.041968
581.000000	0.041993
580.000000	0.042051
579.000000	0.042100
578.000000	0.042234
577.000000	0.042037
576.000000	0.042125
575.000000	0.042229
574.000000	0.042193
573.000000	0.042262
572.000000	0.042274
571.000000	0.042293
570.000000	0.042181
569.000000	0.042172
568.000000	0.042187
567.000000	0.042144
566.000000	0.042136
565.000000	0.042055
564.000000	0.042105
563.000000	0.041946
562.000000	0.041889
561.000000	0.041935
560.000000	0.041959
559.000000	0.041894
558.000000	0.041936
557.000000	0.041907
556.000000	0.041809
555.000000	0.041777
554.000000	0.041844
553.000000	0.041786
552.000000	0.041640
551.000000	0.041746
550.000000	0.041781
549.000000	0.041671
548.000000	0.041705
547.000000	0.041856
546.000000	0.041778
545.000000	0.041726
544.000000	0.041802
543.000000	0.041908
542.000000	0.042024
541.000000	0.042088
540.000000	0.042121
539.000000	0.042191
538.000000	0.042151
537.000000	0.042247
536.000000	0.042468
535.000000	0.042538
534.000000	0.042565
533.000000	0.042749
532.000000	0.042938
531.000000	0.042932
530.000000	0.043061
529.000000	0.043266
528.000000	0.043296
527.000000	0.043337
526.000000	0.043442
525.000000	0.043665
524.000000	0.043760
523.000000	0.043828
522.000000	0.043912
521.000000	0.044036
520.000000	0.044087
519.000000	0.044182
518.000000	0.044391
517.000000	0.044529
516.000000	0.044517
515.000000	0.044638
514.000000	0.044814
513.000000	0.044886
512.000000	0.045035
511.000000	0.045201
510.000000	0.045333
509.000000	0.045345
508.000000	0.045436
507.000000	0.045681
506.000000	0.045844
505.000000	0.045883
504.000000	0.046071
503.000000	0.046182
502.000000	0.046218
501.000000	0.046402
500.000000	0.046668
499.000000	0.046779
498.000000	0.046866
497.000000	0.047077
496.000000	0.047274
495.000000	0.047424
494.000000	0.047598
493.000000	0.047767
492.000000	0.047833
491.000000	0.047948
490.000000	0.048158
489.000000	0.048372
488.000000	0.048472
487.000000	0.048511
486.000000	0.048670
485.000000	0.048825
484.000000	0.048918
483.000000	0.049010
482.000000	0.049157
481.000000	0.049250
480.000000	0.049303
479.000000	0.049478
478.000000	0.049622
477.000000	0.049736
476.000000	0.049892
475.000000	0.050007
474.000000	0.050081
473.000000	0.050231
472.000000	0.050368
471.000000	0.050525
470.000000	0.050666
469.000000	0.050785
468.000000	0.050946
467.000000	0.051066
466.000000	0.051123
465.000000	0.051227
464.000000	0.051525
463.000000	0.051684
462.000000	0.051605
461.000000	0.051792
460.000000	0.052034
459.000000	0.052112
458.000000	0.052308
457.000000	0.052497
456.000000	0.052595
455.000000	0.052737
454.000000	0.052861
453.000000	0.053057
452.000000	0.053286
451.000000	0.053352
450.000000	0.053565
449.000000	0.053836
448.000000	0.054029
447.000000	0.054316
446.000000	0.054618
445.000000	0.054767
444.000000	0.054894
443.000000	0.055136
442.000000	0.055461
441.000000	0.055814
440.000000	0.056065
439.000000	0.056276
438.000000	0.056533
437.000000	0.056816
436.000000	0.057102
435.000000	0.057447
434.000000	0.057783
433.000000	0.058135
432.000000	0.058447
431.000000	0.058718
430.000000	0.058947
429.000000	0.059281
428.000000	0.059739
427.000000	0.060039
426.000000	0.060360
425.000000	0.060651
424.000000	0.061127
423.000000	0.061452
422.000000	0.061840
421.000000	0.062232
420.000000	0.062528
419.000000	0.062905
418.000000	0.063312
417.000000	0.063701
416.000000	0.064173
415.000000	0.064473
414.000000	0.065006
413.000000	0.065522
412.000000	0.065856
411.000000	0.066288
410.000000	0.066829
409.000000	0.067271
408.000000	0.067710
407.000000	0.068129
406.000000	0.068730
405.000000	0.069179
404.000000	0.069694
403.000000	0.070271
402.000000	0.070778
401.000000	0.071295
400.000000	0.071801
399.000000	0.072405
398.000000	0.073120
397.000000	0.073620
396.000000	0.074206
395.000000	0.074884
394.000000	0.075550
393.000000	0.076120
392.000000	0.076847
391.000000	0.077561
390.000000	0.078253
389.000000	0.078908
388.000000	0.079650
387.000000	0.080423
386.000000	0.081178
385.000000	0.081875
384.000000	0.082745
383.000000	0.083524
382.000000	0.084188
381.000000	0.085107
380.000000	0.085884
379.000000	0.086720
378.000000	0.087754
377.000000	0.088505
376.000000	0.089361
375.000000	0.090312
374.000000	0.091296
373.000000	0.092142
372.000000	0.093166
371.000000	0.094080
370.000000	0.095022
369.000000	0.095831
368.000000	0.096803
367.000000	0.097898
366.000000	0.098901
365.000000	0.100001
364.000000	0.101009
363.000000	0.101894
362.000000	0.102975
361.000000	0.104072
360.000000	0.105170
359.000000	0.106398
358.000000	0.107503
357.000000	0.108478
356.000000	0.109556
355.000000	0.110715
354.000000	0.111950
353.000000	0.113180
352.000000	0.114314
351.000000	0.115465
350.000000	0.116583
349.000000	0.117733
348.000000	0.118923
347.000000	0.120178
346.000000	0.121505
345.000000	0.122671
344.000000	0.123900
343.000000	0.125228
342.000000	0.126445
341.000000	0.127735
340.000000	0.129214
339.000000	0.130442
338.000000	0.131718
337.000000	0.133136
336.000000	0.134578
335.000000	0.135938
334.000000	0.137291
333.000000	0.138764
332.000000	0.140223
331.000000	0.141772
330.000000	0.143241
329.000000	0.144794
328.000000	0.146408
327.000000	0.147912
326.000000	0.149492
325.000000	0.151108
324.000000	0.152784
323.000000	0.154391
322.000000	0.156089
321.000000	0.157905
320.000000	0.159561
319.000000	0.161319
318.000000	0.163520
317.000000	0.166453
316.000000	0.168400
315.000000	0.170337
314.000000	0.172130
313.000000	0.174021
312.000000	0.176033
311.000000	0.178011
310.000000	0.179983
309.000000	0.182117
308.000000	0.184214
307.000000	0.186325
306.000000	0.188344
305.000000	0.190508
304.000000	0.192679
303.000000	0.194862
302.000000	0.197115
301.000000	0.199485
300.000000	0.201780
299.000000	0.204114
298.000000	0.206492
297.000000	0.208986
296.000000	0.211314
295.000000	0.213791
294.000000	0.216401
293.000000	0.219000
292.000000	0.221596
291.000000	0.224301
290.000000	0.227085
289.000000	0.229798
288.000000	0.232565
287.000000	0.235412
286.000000	0.238295
285.000000	0.241085
284.000000	0.243929
283.000000	0.246811
282.000000	0.249672
281.000000	0.252597
280.000000	0.255633
279.000000	0.258543
278.000000	0.261355
277.000000	0.264243
276.000000	0.267246
275.000000	0.270320
274.000000	0.273324
273.000000	0.276416
272.000000	0.279551
271.000000	0.282528
270.000000	0.285470
269.000000	0.288509
268.000000	0.291400
267.000000	0.294153
266.000000	0.296965
265.000000	0.299908
264.000000	0.302647
263.000000	0.305349
262.000000	0.308146
261.000000	0.310882
260.000000	0.313405
259.000000	0.315850
258.000000	0.318371
257.000000	0.320806
256.000000	0.323275
255.000000	0.325768
254.000000	0.328215
253.000000	0.330637
252.000000	0.333032
251.000000	0.335618
250.000000	0.338372
249.000000	0.340969
248.000000	0.343834
247.000000	0.347002
246.000000	0.350111
245.000000	0.353370
244.000000	0.357058
243.000000	0.360845
242.000000	0.364636
241.000000	0.368708
240.000000	0.372962
239.000000	0.377580
238.000000	0.382347
237.000000	0.387035
236.000000	0.392131
235.000000	0.397348
234.000000	0.402785
233.000000	0.408642
232.000000	0.414802
231.000000	0.420734
230.000000	0.426952
229.000000	0.433407
228.000000	0.440035
227.000000	0.446842
226.000000	0.454226
225.000000	0.461786
224.000000	0.469587
223.000000	0.478059
222.000000	0.487163
221.000000	0.496940
220.000000	0.507225
219.000000	0.518351
218.000000	0.530411
217.000000	0.544117
216.000000	0.558953
215.000000	0.575899
214.000000	0.594816
213.000000	0.615942
212.000000	0.640095
211.000000	0.666992
210.000000	0.697681
209.000000	0.732361
208.000000	0.771919
207.000000	0.817425
206.000000	0.870275
205.000000	0.931690
204.000000	1.005101
203.000000	1.096377
202.000000	1.209003
201.000000	1.355111
200.000000	1.546765
