PE UV       SUBTECH     SPECTRUM    ASCII       PEDS        4.00        
   -1
KI4-000.Sample.Raw.asc
11/05/20
11:30:41.00
11/05/20
11:30:41.00
Hermanni Kaartokallio

200.000000
1
Lambda 650
650N8121101
PerkinElmer UV WinLab 6.0.2.0723 / 1.61.00 Lambda 650

0
0
2
0
0
UV/VIS
1
1
1
uv/vis/nir detector
0
0
0
0
Fix
 
0
0.24
0
0
0
 
 
 
0
 
0
319.2
0
Front
100
 
 
 
0
0
0
 
0
 
 
 
0
 
 
0
0
0
0
0
 
 
 
 
0
0
#HDR
-1
-1
#GR
nm
A
1.0
0.0
800.000000
-1.000000
601
8
1.226484
0.040060
#DATA
800.000000	0.047623
799.000000	0.047588
798.000000	0.047746
797.000000	0.047921
796.000000	0.047890
795.000000	0.048006
794.000000	0.047968
793.000000	0.048209
792.000000	0.048336
791.000000	0.048394
790.000000	0.048681
789.000000	0.048917
788.000000	0.048967
787.000000	0.048987
786.000000	0.049078
785.000000	0.049210
784.000000	0.049139
783.000000	0.049245
782.000000	0.049251
781.000000	0.049204
780.000000	0.049191
779.000000	0.049316
778.000000	0.049194
777.000000	0.049047
776.000000	0.048890
775.000000	0.049034
774.000000	0.048979
773.000000	0.048928
772.000000	0.048897
771.000000	0.048837
770.000000	0.048773
769.000000	0.048740
768.000000	0.048865
767.000000	0.048810
766.000000	0.048806
765.000000	0.049014
764.000000	0.048954
763.000000	0.049082
762.000000	0.048999
761.000000	0.049177
760.000000	0.049293
759.000000	0.049209
758.000000	0.049304
757.000000	0.049538
756.000000	0.049441
755.000000	0.049454
754.000000	0.049407
753.000000	0.049531
752.000000	0.049421
751.000000	0.049424
750.000000	0.049637
749.000000	0.049688
748.000000	0.049519
747.000000	0.049572
746.000000	0.049746
745.000000	0.049690
744.000000	0.049572
743.000000	0.049672
742.000000	0.049655
741.000000	0.049579
740.000000	0.049444
739.000000	0.049394
738.000000	0.049250
737.000000	0.048970
736.000000	0.048734
735.000000	0.048432
734.000000	0.047999
733.000000	0.047461
732.000000	0.047112
731.000000	0.046726
730.000000	0.046245
729.000000	0.045863
728.000000	0.045467
727.000000	0.045097
726.000000	0.044789
725.000000	0.044628
724.000000	0.044349
723.000000	0.043993
722.000000	0.043748
721.000000	0.043607
720.000000	0.043336
719.000000	0.043002
718.000000	0.042709
717.000000	0.042425
716.000000	0.042062
715.000000	0.041771
714.000000	0.041597
713.000000	0.041310
712.000000	0.040984
711.000000	0.040749
710.000000	0.040564
709.000000	0.040398
708.000000	0.040251
707.000000	0.040184
706.000000	0.040177
705.000000	0.040093
704.000000	0.040060
703.000000	0.040122
702.000000	0.040248
701.000000	0.040263
700.000000	0.040308
699.000000	0.040567
698.000000	0.040776
697.000000	0.040756
696.000000	0.040813
695.000000	0.040822
694.000000	0.040637
693.000000	0.040649
692.000000	0.040771
691.000000	0.040871
690.000000	0.040905
689.000000	0.040863
688.000000	0.040768
687.000000	0.040771
686.000000	0.040824
685.000000	0.040806
684.000000	0.040786
683.000000	0.040782
682.000000	0.040766
681.000000	0.040778
680.000000	0.040749
679.000000	0.040813
678.000000	0.040815
677.000000	0.040758
676.000000	0.040792
675.000000	0.040902
674.000000	0.040983
673.000000	0.041043
672.000000	0.041137
671.000000	0.041170
670.000000	0.041207
669.000000	0.041387
668.000000	0.041498
667.000000	0.041606
666.000000	0.041651
665.000000	0.041736
664.000000	0.041885
663.000000	0.042050
662.000000	0.042096
661.000000	0.042209
660.000000	0.042324
659.000000	0.042427
658.000000	0.042474
657.000000	0.042536
656.000000	0.042653
655.000000	0.042735
654.000000	0.042723
653.000000	0.042800
652.000000	0.042826
651.000000	0.042979
650.000000	0.042909
649.000000	0.042873
648.000000	0.042890
647.000000	0.042927
646.000000	0.042827
645.000000	0.042776
644.000000	0.042764
643.000000	0.042722
642.000000	0.042667
641.000000	0.042601
640.000000	0.042630
639.000000	0.042661
638.000000	0.042630
637.000000	0.042595
636.000000	0.042574
635.000000	0.042513
634.000000	0.042603
633.000000	0.042849
632.000000	0.042807
631.000000	0.042966
630.000000	0.043043
629.000000	0.043156
628.000000	0.043148
627.000000	0.043317
626.000000	0.043461
625.000000	0.043552
624.000000	0.043637
623.000000	0.043735
622.000000	0.043927
621.000000	0.044019
620.000000	0.044091
619.000000	0.044275
618.000000	0.044358
617.000000	0.044455
616.000000	0.044554
615.000000	0.044740
614.000000	0.044752
613.000000	0.044702
612.000000	0.044914
611.000000	0.045050
610.000000	0.045166
609.000000	0.045275
608.000000	0.045260
607.000000	0.045356
606.000000	0.045391
605.000000	0.045558
604.000000	0.045690
603.000000	0.045799
602.000000	0.045740
601.000000	0.045870
600.000000	0.045802
599.000000	0.045845
598.000000	0.045951
597.000000	0.046070
596.000000	0.046056
595.000000	0.046107
594.000000	0.046245
593.000000	0.046342
592.000000	0.046439
591.000000	0.046477
590.000000	0.046770
589.000000	0.046747
588.000000	0.046824
587.000000	0.046886
586.000000	0.046969
585.000000	0.047012
584.000000	0.047157
583.000000	0.047109
582.000000	0.047283
581.000000	0.047314
580.000000	0.047459
579.000000	0.047494
578.000000	0.047652
577.000000	0.047638
576.000000	0.047797
575.000000	0.047911
574.000000	0.047877
573.000000	0.047944
572.000000	0.048066
571.000000	0.048106
570.000000	0.048100
569.000000	0.048137
568.000000	0.048223
567.000000	0.048255
566.000000	0.048267
565.000000	0.048284
564.000000	0.048325
563.000000	0.048237
562.000000	0.048298
561.000000	0.048438
560.000000	0.048477
559.000000	0.048502
558.000000	0.048582
557.000000	0.048566
556.000000	0.048521
555.000000	0.048577
554.000000	0.048672
553.000000	0.048727
552.000000	0.048690
551.000000	0.048840
550.000000	0.048984
549.000000	0.048937
548.000000	0.049027
547.000000	0.049249
546.000000	0.049279
545.000000	0.049297
544.000000	0.049429
543.000000	0.049625
542.000000	0.049744
541.000000	0.049886
540.000000	0.050015
539.000000	0.050204
538.000000	0.050267
537.000000	0.050439
536.000000	0.050728
535.000000	0.050886
534.000000	0.051001
533.000000	0.051264
532.000000	0.051451
531.000000	0.051570
530.000000	0.051764
529.000000	0.052044
528.000000	0.052202
527.000000	0.052334
526.000000	0.052558
525.000000	0.052825
524.000000	0.052990
523.000000	0.053160
522.000000	0.053390
521.000000	0.053660
520.000000	0.053818
519.000000	0.054018
518.000000	0.054241
517.000000	0.054445
516.000000	0.054631
515.000000	0.054924
514.000000	0.055163
513.000000	0.055316
512.000000	0.055522
511.000000	0.055845
510.000000	0.056076
509.000000	0.056191
508.000000	0.056447
507.000000	0.056755
506.000000	0.057008
505.000000	0.057229
504.000000	0.057527
503.000000	0.057759
502.000000	0.057934
501.000000	0.058227
500.000000	0.058600
499.000000	0.058817
498.000000	0.059053
497.000000	0.059380
496.000000	0.059711
495.000000	0.059910
494.000000	0.060192
493.000000	0.060563
492.000000	0.060848
491.000000	0.061114
490.000000	0.061458
489.000000	0.061783
488.000000	0.062006
487.000000	0.062232
486.000000	0.062527
485.000000	0.062815
484.000000	0.063068
483.000000	0.063322
482.000000	0.063660
481.000000	0.063902
480.000000	0.064129
479.000000	0.064445
478.000000	0.064752
477.000000	0.065005
476.000000	0.065271
475.000000	0.065618
474.000000	0.065915
473.000000	0.066178
472.000000	0.066473
471.000000	0.066801
470.000000	0.067149
469.000000	0.067390
468.000000	0.067682
467.000000	0.068031
466.000000	0.068314
465.000000	0.068639
464.000000	0.069113
463.000000	0.069479
462.000000	0.069658
461.000000	0.070030
460.000000	0.070424
459.000000	0.070679
458.000000	0.071104
457.000000	0.071592
456.000000	0.071915
455.000000	0.072243
454.000000	0.072651
453.000000	0.073124
452.000000	0.073557
451.000000	0.073897
450.000000	0.074338
449.000000	0.074904
448.000000	0.075335
447.000000	0.075878
446.000000	0.076465
445.000000	0.076853
444.000000	0.077296
443.000000	0.077931
442.000000	0.078483
441.000000	0.079093
440.000000	0.079667
439.000000	0.080276
438.000000	0.080855
437.000000	0.081455
436.000000	0.082068
435.000000	0.082754
434.000000	0.083438
433.000000	0.084128
432.000000	0.084765
431.000000	0.085523
430.000000	0.086187
429.000000	0.087083
428.000000	0.087706
427.000000	0.088513
426.000000	0.089241
425.000000	0.089989
424.000000	0.090921
423.000000	0.091782
422.000000	0.092530
421.000000	0.093374
420.000000	0.094291
419.000000	0.095055
418.000000	0.096030
417.000000	0.096912
416.000000	0.097809
415.000000	0.098624
414.000000	0.099679
413.000000	0.100769
412.000000	0.101712
411.000000	0.102665
410.000000	0.103867
409.000000	0.104812
408.000000	0.105906
407.000000	0.106975
406.000000	0.108095
405.000000	0.109187
404.000000	0.110318
403.000000	0.111631
402.000000	0.112804
401.000000	0.114016
400.000000	0.115293
399.000000	0.116576
398.000000	0.118079
397.000000	0.119237
396.000000	0.120657
395.000000	0.122180
394.000000	0.123588
393.000000	0.125042
392.000000	0.126596
391.000000	0.128204
390.000000	0.129667
389.000000	0.131284
388.000000	0.132964
387.000000	0.134573
386.000000	0.136273
385.000000	0.138066
384.000000	0.139863
383.000000	0.141725
382.000000	0.143400
381.000000	0.145335
380.000000	0.147289
379.000000	0.149128
378.000000	0.151402
377.000000	0.153301
376.000000	0.155341
375.000000	0.157208
374.000000	0.159475
373.000000	0.161651
372.000000	0.163824
371.000000	0.165890
370.000000	0.168274
369.000000	0.170395
368.000000	0.172651
367.000000	0.175023
366.000000	0.177292
365.000000	0.179688
364.000000	0.182133
363.000000	0.184457
362.000000	0.186911
361.000000	0.189431
360.000000	0.191990
359.000000	0.194535
358.000000	0.197027
357.000000	0.199565
356.000000	0.202064
355.000000	0.204797
354.000000	0.207485
353.000000	0.210199
352.000000	0.212958
351.000000	0.215638
350.000000	0.218341
349.000000	0.220987
348.000000	0.223835
347.000000	0.226683
346.000000	0.229481
345.000000	0.232293
344.000000	0.235213
343.000000	0.238180
342.000000	0.241043
341.000000	0.244005
340.000000	0.247035
339.000000	0.249976
338.000000	0.252938
337.000000	0.256003
336.000000	0.259143
335.000000	0.262204
334.000000	0.265429
333.000000	0.268686
332.000000	0.271850
331.000000	0.275092
330.000000	0.278383
329.000000	0.281594
328.000000	0.284994
327.000000	0.288305
326.000000	0.291611
325.000000	0.295012
324.000000	0.298492
323.000000	0.302072
322.000000	0.305827
321.000000	0.309493
320.000000	0.313148
319.000000	0.316876
318.000000	0.320993
317.000000	0.325669
316.000000	0.329517
315.000000	0.333375
314.000000	0.337372
313.000000	0.341456
312.000000	0.345593
311.000000	0.349708
310.000000	0.353938
309.000000	0.358124
308.000000	0.362222
307.000000	0.366413
306.000000	0.370709
305.000000	0.375111
304.000000	0.379559
303.000000	0.384126
302.000000	0.388654
301.000000	0.393295
300.000000	0.397984
299.000000	0.402620
298.000000	0.407439
297.000000	0.412280
296.000000	0.417028
295.000000	0.421910
294.000000	0.426923
293.000000	0.432019
292.000000	0.437068
291.000000	0.442316
290.000000	0.447693
289.000000	0.452926
288.000000	0.458110
287.000000	0.463484
286.000000	0.468942
285.000000	0.474322
284.000000	0.479737
283.000000	0.485183
282.000000	0.490540
281.000000	0.496002
280.000000	0.501572
279.000000	0.507017
278.000000	0.512456
277.000000	0.518019
276.000000	0.523576
275.000000	0.529058
274.000000	0.534644
273.000000	0.540398
272.000000	0.546162
271.000000	0.551845
270.000000	0.557409
269.000000	0.563027
268.000000	0.568608
267.000000	0.574085
266.000000	0.579572
265.000000	0.585087
264.000000	0.590388
263.000000	0.595544
262.000000	0.600728
261.000000	0.605756
260.000000	0.610545
259.000000	0.615339
258.000000	0.620210
257.000000	0.624997
256.000000	0.629756
255.000000	0.634222
254.000000	0.638824
253.000000	0.643606
252.000000	0.648462
251.000000	0.653640
250.000000	0.658890
249.000000	0.664246
248.000000	0.670008
247.000000	0.676162
246.000000	0.682426
245.000000	0.689074
244.000000	0.696215
243.000000	0.703737
242.000000	0.711402
241.000000	0.719404
240.000000	0.727797
239.000000	0.736427
238.000000	0.745354
237.000000	0.754718
236.000000	0.764349
235.000000	0.774199
234.000000	0.784249
233.000000	0.794699
232.000000	0.805354
231.000000	0.816012
230.000000	0.826668
229.000000	0.837360
228.000000	0.848264
227.000000	0.858956
226.000000	0.869927
225.000000	0.881153
224.000000	0.892338
223.000000	0.903874
222.000000	0.915750
221.000000	0.927869
220.000000	0.939992
219.000000	0.952840
218.000000	0.965410
217.000000	0.978923
216.000000	0.992882
215.000000	1.007341
214.000000	1.021798
213.000000	1.036705
212.000000	1.051791
211.000000	1.066547
210.000000	1.081581
209.000000	1.096436
208.000000	1.110928
207.000000	1.125013
206.000000	1.139399
205.000000	1.153463
204.000000	1.167349
203.000000	1.181560
202.000000	1.195861
201.000000	1.210899
200.000000	1.226484
