PE UV       SUBTECH     SPECTRUM    ASCII       PEDS        4.00        
   -1
KI4-01A.Sample.Raw.asc
11/05/20
12:11:07.00
11/05/20
12:11:07.00
Hermanni Kaartokallio

200.000000
1
Lambda 650
650N8121101
PerkinElmer UV WinLab 6.0.2.0723 / 1.61.00 Lambda 650

0
0
2
0
0
UV/VIS
1
1
1
uv/vis/nir detector
0
0
0
0
Fix
 
0
0.24
0
0
0
 
 
 
0
 
0
319.2
0
Front
100
 
 
 
0
0
0
 
0
 
 
 
0
 
 
0
0
0
0
0
 
 
 
 
0
0
#HDR
-1
-1
#GR
nm
A
1.0
0.0
800.000000
-1.000000
601
8
1.272825
0.040286
#DATA
800.000000	0.048197
799.000000	0.048138
798.000000	0.048468
797.000000	0.048667
796.000000	0.048617
795.000000	0.048642
794.000000	0.048714
793.000000	0.049058
792.000000	0.049072
791.000000	0.049161
790.000000	0.049545
789.000000	0.049764
788.000000	0.049753
787.000000	0.049840
786.000000	0.049950
785.000000	0.049877
784.000000	0.049835
783.000000	0.050025
782.000000	0.049905
781.000000	0.049859
780.000000	0.049790
779.000000	0.049978
778.000000	0.049810
777.000000	0.049571
776.000000	0.049699
775.000000	0.049640
774.000000	0.049598
773.000000	0.049343
772.000000	0.049497
771.000000	0.049319
770.000000	0.049411
769.000000	0.049399
768.000000	0.049569
767.000000	0.049474
766.000000	0.049492
765.000000	0.049643
764.000000	0.049682
763.000000	0.049711
762.000000	0.049718
761.000000	0.049878
760.000000	0.049866
759.000000	0.049776
758.000000	0.049931
757.000000	0.049963
756.000000	0.049836
755.000000	0.049944
754.000000	0.049775
753.000000	0.049820
752.000000	0.049688
751.000000	0.049618
750.000000	0.049908
749.000000	0.049918
748.000000	0.049800
747.000000	0.049933
746.000000	0.049992
745.000000	0.049893
744.000000	0.049983
743.000000	0.050191
742.000000	0.050070
741.000000	0.049887
740.000000	0.049806
739.000000	0.049750
738.000000	0.049511
737.000000	0.049252
736.000000	0.049107
735.000000	0.048778
734.000000	0.048366
733.000000	0.047906
732.000000	0.047536
731.000000	0.047115
730.000000	0.046683
729.000000	0.046333
728.000000	0.045916
727.000000	0.045526
726.000000	0.045308
725.000000	0.045080
724.000000	0.044740
723.000000	0.044423
722.000000	0.044158
721.000000	0.043944
720.000000	0.043702
719.000000	0.043415
718.000000	0.043125
717.000000	0.042817
716.000000	0.042460
715.000000	0.042222
714.000000	0.042011
713.000000	0.041645
712.000000	0.041304
711.000000	0.041095
710.000000	0.040899
709.000000	0.040698
708.000000	0.040538
707.000000	0.040504
706.000000	0.040441
705.000000	0.040291
704.000000	0.040286
703.000000	0.040331
702.000000	0.040422
701.000000	0.040425
700.000000	0.040392
699.000000	0.040472
698.000000	0.040564
697.000000	0.040537
696.000000	0.040687
695.000000	0.040753
694.000000	0.040585
693.000000	0.040672
692.000000	0.040700
691.000000	0.040704
690.000000	0.040784
689.000000	0.040845
688.000000	0.040820
687.000000	0.040830
686.000000	0.040839
685.000000	0.040827
684.000000	0.040767
683.000000	0.040781
682.000000	0.040825
681.000000	0.040791
680.000000	0.040746
679.000000	0.040811
678.000000	0.040794
677.000000	0.040716
676.000000	0.040724
675.000000	0.040867
674.000000	0.040946
673.000000	0.040977
672.000000	0.041037
671.000000	0.041148
670.000000	0.041181
669.000000	0.041357
668.000000	0.041529
667.000000	0.041679
666.000000	0.041678
665.000000	0.041724
664.000000	0.041955
663.000000	0.042091
662.000000	0.042102
661.000000	0.042217
660.000000	0.042275
659.000000	0.042340
658.000000	0.042442
657.000000	0.042557
656.000000	0.042562
655.000000	0.042592
654.000000	0.042636
653.000000	0.042692
652.000000	0.042683
651.000000	0.042769
650.000000	0.042769
649.000000	0.042764
648.000000	0.042726
647.000000	0.042690
646.000000	0.042714
645.000000	0.042645
644.000000	0.042607
643.000000	0.042545
642.000000	0.042516
641.000000	0.042421
640.000000	0.042414
639.000000	0.042405
638.000000	0.042358
637.000000	0.042337
636.000000	0.042311
635.000000	0.042283
634.000000	0.042419
633.000000	0.042521
632.000000	0.042516
631.000000	0.042643
630.000000	0.042732
629.000000	0.042858
628.000000	0.042899
627.000000	0.043063
626.000000	0.043132
625.000000	0.043288
624.000000	0.043386
623.000000	0.043435
622.000000	0.043572
621.000000	0.043719
620.000000	0.043844
619.000000	0.043929
618.000000	0.044037
617.000000	0.044179
616.000000	0.044281
615.000000	0.044422
614.000000	0.044439
613.000000	0.044483
612.000000	0.044587
611.000000	0.044731
610.000000	0.044753
609.000000	0.044829
608.000000	0.044890
607.000000	0.044913
606.000000	0.044985
605.000000	0.045113
604.000000	0.045216
603.000000	0.045217
602.000000	0.045269
601.000000	0.045390
600.000000	0.045369
599.000000	0.045331
598.000000	0.045515
597.000000	0.045632
596.000000	0.045599
595.000000	0.045725
594.000000	0.045821
593.000000	0.045798
592.000000	0.045927
591.000000	0.046020
590.000000	0.046262
589.000000	0.046240
588.000000	0.046276
587.000000	0.046355
586.000000	0.046475
585.000000	0.046523
584.000000	0.046651
583.000000	0.046675
582.000000	0.046776
581.000000	0.046847
580.000000	0.046994
579.000000	0.046970
578.000000	0.047103
577.000000	0.047078
576.000000	0.047242
575.000000	0.047353
574.000000	0.047369
573.000000	0.047432
572.000000	0.047489
571.000000	0.047569
570.000000	0.047564
569.000000	0.047591
568.000000	0.047602
567.000000	0.047617
566.000000	0.047712
565.000000	0.047638
564.000000	0.047625
563.000000	0.047586
562.000000	0.047608
561.000000	0.047728
560.000000	0.047818
559.000000	0.047844
558.000000	0.047850
557.000000	0.047837
556.000000	0.047826
555.000000	0.047912
554.000000	0.047971
553.000000	0.047940
552.000000	0.047946
551.000000	0.048068
550.000000	0.048153
549.000000	0.048139
548.000000	0.048211
547.000000	0.048398
546.000000	0.048397
545.000000	0.048449
544.000000	0.048588
543.000000	0.048723
542.000000	0.048852
541.000000	0.049012
540.000000	0.049137
539.000000	0.049297
538.000000	0.049318
537.000000	0.049521
536.000000	0.049763
535.000000	0.049867
534.000000	0.049973
533.000000	0.050243
532.000000	0.050462
531.000000	0.050547
530.000000	0.050743
529.000000	0.050980
528.000000	0.051096
527.000000	0.051245
526.000000	0.051430
525.000000	0.051679
524.000000	0.051796
523.000000	0.051996
522.000000	0.052167
521.000000	0.052375
520.000000	0.052558
519.000000	0.052775
518.000000	0.053005
517.000000	0.053186
516.000000	0.053321
515.000000	0.053568
514.000000	0.053755
513.000000	0.053906
512.000000	0.054146
511.000000	0.054455
510.000000	0.054654
509.000000	0.054752
508.000000	0.055004
507.000000	0.055301
506.000000	0.055496
505.000000	0.055743
504.000000	0.055995
503.000000	0.056151
502.000000	0.056278
501.000000	0.056596
500.000000	0.056975
499.000000	0.057193
498.000000	0.057406
497.000000	0.057712
496.000000	0.058010
495.000000	0.058220
494.000000	0.058500
493.000000	0.058817
492.000000	0.059003
491.000000	0.059230
490.000000	0.059512
489.000000	0.059807
488.000000	0.060021
487.000000	0.060189
486.000000	0.060492
485.000000	0.060765
484.000000	0.060995
483.000000	0.061257
482.000000	0.061542
481.000000	0.061689
480.000000	0.061853
479.000000	0.062167
478.000000	0.062467
477.000000	0.062706
476.000000	0.063018
475.000000	0.063310
474.000000	0.063499
473.000000	0.063720
472.000000	0.064054
471.000000	0.064360
470.000000	0.064575
469.000000	0.064848
468.000000	0.065188
467.000000	0.065443
466.000000	0.065684
465.000000	0.065941
464.000000	0.066396
463.000000	0.066722
462.000000	0.066853
461.000000	0.067233
460.000000	0.067590
459.000000	0.067817
458.000000	0.068195
457.000000	0.068584
456.000000	0.068844
455.000000	0.069151
454.000000	0.069521
453.000000	0.069950
452.000000	0.070331
451.000000	0.070608
450.000000	0.071047
449.000000	0.071546
448.000000	0.071915
447.000000	0.072402
446.000000	0.072941
445.000000	0.073348
444.000000	0.073692
443.000000	0.074241
442.000000	0.074796
441.000000	0.075282
440.000000	0.075804
439.000000	0.076437
438.000000	0.076948
437.000000	0.077465
436.000000	0.078074
435.000000	0.078648
434.000000	0.079243
433.000000	0.079845
432.000000	0.080470
431.000000	0.081146
430.000000	0.081674
429.000000	0.082309
428.000000	0.083167
427.000000	0.083805
426.000000	0.084411
425.000000	0.085096
424.000000	0.085951
423.000000	0.086589
422.000000	0.087349
421.000000	0.088097
420.000000	0.088891
419.000000	0.089550
418.000000	0.090397
417.000000	0.091193
416.000000	0.092022
415.000000	0.092738
414.000000	0.093785
413.000000	0.094683
412.000000	0.095500
411.000000	0.096303
410.000000	0.097309
409.000000	0.098267
408.000000	0.099100
407.000000	0.100092
406.000000	0.101172
405.000000	0.102133
404.000000	0.103111
403.000000	0.104227
402.000000	0.105263
401.000000	0.106361
400.000000	0.107446
399.000000	0.108683
398.000000	0.109932
397.000000	0.110966
396.000000	0.112206
395.000000	0.113514
394.000000	0.114769
393.000000	0.116049
392.000000	0.117506
391.000000	0.118800
390.000000	0.120071
389.000000	0.121463
388.000000	0.122980
387.000000	0.124330
386.000000	0.125989
385.000000	0.127437
384.000000	0.129087
383.000000	0.130610
382.000000	0.132115
381.000000	0.133862
380.000000	0.135502
379.000000	0.137106
378.000000	0.139182
377.000000	0.140791
376.000000	0.142597
375.000000	0.144276
374.000000	0.146269
373.000000	0.148040
372.000000	0.149920
371.000000	0.151859
370.000000	0.153793
369.000000	0.155831
368.000000	0.157566
367.000000	0.159626
366.000000	0.161629
365.000000	0.163709
364.000000	0.165878
363.000000	0.167924
362.000000	0.169959
361.000000	0.172171
360.000000	0.174342
359.000000	0.176661
358.000000	0.178870
357.000000	0.181023
356.000000	0.183265
355.000000	0.185544
354.000000	0.187832
353.000000	0.190320
352.000000	0.192675
351.000000	0.194969
350.000000	0.197247
349.000000	0.199664
348.000000	0.202162
347.000000	0.204560
346.000000	0.207068
345.000000	0.209444
344.000000	0.212020
343.000000	0.214485
342.000000	0.217043
341.000000	0.219621
340.000000	0.222176
339.000000	0.224890
338.000000	0.227456
337.000000	0.230170
336.000000	0.232902
335.000000	0.235562
334.000000	0.238356
333.000000	0.240937
332.000000	0.243734
331.000000	0.246681
330.000000	0.249530
329.000000	0.252379
328.000000	0.255379
327.000000	0.258353
326.000000	0.261310
325.000000	0.264334
324.000000	0.267403
323.000000	0.270557
322.000000	0.273786
321.000000	0.276961
320.000000	0.280194
319.000000	0.283290
318.000000	0.287013
317.000000	0.291483
316.000000	0.294808
315.000000	0.298272
314.000000	0.301743
313.000000	0.305338
312.000000	0.308954
311.000000	0.312597
310.000000	0.316435
309.000000	0.320162
308.000000	0.323834
307.000000	0.327680
306.000000	0.331476
305.000000	0.335314
304.000000	0.339289
303.000000	0.343210
302.000000	0.347211
301.000000	0.351426
300.000000	0.355430
299.000000	0.359383
298.000000	0.363498
297.000000	0.367455
296.000000	0.371576
295.000000	0.375954
294.000000	0.380451
293.000000	0.384782
292.000000	0.389243
291.000000	0.393844
290.000000	0.398422
289.000000	0.403069
288.000000	0.407772
287.000000	0.412455
286.000000	0.417236
285.000000	0.422031
284.000000	0.426815
283.000000	0.431640
282.000000	0.436399
281.000000	0.441192
280.000000	0.446104
279.000000	0.450905
278.000000	0.455653
277.000000	0.460494
276.000000	0.465340
275.000000	0.470231
274.000000	0.475170
273.000000	0.480294
272.000000	0.485430
271.000000	0.490344
270.000000	0.495320
269.000000	0.500397
268.000000	0.505338
267.000000	0.510226
266.000000	0.515114
265.000000	0.519932
264.000000	0.524528
263.000000	0.529053
262.000000	0.533775
261.000000	0.538300
260.000000	0.542668
259.000000	0.547004
258.000000	0.551216
257.000000	0.555421
256.000000	0.559674
255.000000	0.563957
254.000000	0.568272
253.000000	0.572513
252.000000	0.576839
251.000000	0.581451
250.000000	0.586168
249.000000	0.590921
248.000000	0.596036
247.000000	0.601385
246.000000	0.606746
245.000000	0.612546
244.000000	0.618778
243.000000	0.625392
242.000000	0.632176
241.000000	0.639380
240.000000	0.646438
239.000000	0.653887
238.000000	0.661775
237.000000	0.670035
236.000000	0.678509
235.000000	0.687101
234.000000	0.695982
233.000000	0.705191
232.000000	0.714591
231.000000	0.724033
230.000000	0.733502
229.000000	0.743076
228.000000	0.752635
227.000000	0.762483
226.000000	0.772632
225.000000	0.782852
224.000000	0.793246
223.000000	0.803917
222.000000	0.815231
221.000000	0.826651
220.000000	0.838328
219.000000	0.850611
218.000000	0.863295
217.000000	0.876464
216.000000	0.890409
215.000000	0.905014
214.000000	0.920195
213.000000	0.935963
212.000000	0.952306
211.000000	0.969515
210.000000	0.987135
209.000000	1.005443
208.000000	1.024460
207.000000	1.044748
206.000000	1.066194
205.000000	1.089038
204.000000	1.114872
203.000000	1.143891
202.000000	1.177833
201.000000	1.219659
200.000000	1.272825
