PE UV       SUBTECH     SPECTRUM    ASCII       PEDS        4.00        
   -1
MQ12005.Sample.Raw.asc
11/05/20
09:46:44.00
11/05/20
09:46:44.00
Hermanni Kaartokallio

200.000000
1
Lambda 650
650N8121101
PerkinElmer UV WinLab 6.0.2.0723 / 1.61.00 Lambda 650

0
0
2
0
0
UV/VIS
1
1
1
uv/vis/nir detector
0
0
0
0
Fix
 
0
0.24
0
0
0
 
 
 
0
 
0
319.2
0
Front
100
 
 
 
0
0
0
 
0
 
 
 
0
 
 
0
0
0
0
0
 
 
 
 
0
0
#HDR
-1
-1
#GR
nm
A
1.0
0.0
800.000000
-1.000000
601
8
0.112290
0.033134
#DATA
800.000000	0.042501
799.000000	0.042442
798.000000	0.042688
797.000000	0.042885
796.000000	0.043072
795.000000	0.043128
794.000000	0.042973
793.000000	0.043421
792.000000	0.043503
791.000000	0.043671
790.000000	0.043978
789.000000	0.044234
788.000000	0.044462
787.000000	0.044365
786.000000	0.044712
785.000000	0.044913
784.000000	0.044960
783.000000	0.045077
782.000000	0.045170
781.000000	0.045387
780.000000	0.045200
779.000000	0.045375
778.000000	0.045310
777.000000	0.045170
776.000000	0.045083
775.000000	0.045292
774.000000	0.045204
773.000000	0.045199
772.000000	0.045381
771.000000	0.045460
770.000000	0.045690
769.000000	0.045632
768.000000	0.045736
767.000000	0.045727
766.000000	0.045734
765.000000	0.045981
764.000000	0.046032
763.000000	0.045970
762.000000	0.045780
761.000000	0.045720
760.000000	0.045875
759.000000	0.045805
758.000000	0.045839
757.000000	0.045958
756.000000	0.045803
755.000000	0.045565
754.000000	0.045533
753.000000	0.045544
752.000000	0.045375
751.000000	0.045315
750.000000	0.045389
749.000000	0.045208
748.000000	0.045187
747.000000	0.045111
746.000000	0.045092
745.000000	0.044964
744.000000	0.044775
743.000000	0.044640
742.000000	0.044641
741.000000	0.044526
740.000000	0.044323
739.000000	0.044144
738.000000	0.043937
737.000000	0.043583
736.000000	0.043448
735.000000	0.043139
734.000000	0.042675
733.000000	0.042084
732.000000	0.041561
731.000000	0.041209
730.000000	0.040905
729.000000	0.040473
728.000000	0.040123
727.000000	0.039769
726.000000	0.039536
725.000000	0.039249
724.000000	0.039025
723.000000	0.038732
722.000000	0.038506
721.000000	0.038335
720.000000	0.038027
719.000000	0.037675
718.000000	0.037473
717.000000	0.037209
716.000000	0.036895
715.000000	0.036676
714.000000	0.036495
713.000000	0.036234
712.000000	0.036115
711.000000	0.035997
710.000000	0.035859
709.000000	0.035740
708.000000	0.035499
707.000000	0.035309
706.000000	0.035460
705.000000	0.035516
704.000000	0.035428
703.000000	0.035399
702.000000	0.035400
701.000000	0.035421
700.000000	0.035458
699.000000	0.035528
698.000000	0.035543
697.000000	0.035319
696.000000	0.035115
695.000000	0.035020
694.000000	0.035009
693.000000	0.035003
692.000000	0.034870
691.000000	0.034752
690.000000	0.034587
689.000000	0.034494
688.000000	0.034382
687.000000	0.034274
686.000000	0.034267
685.000000	0.034177
684.000000	0.034013
683.000000	0.033925
682.000000	0.033834
681.000000	0.033683
680.000000	0.033583
679.000000	0.033578
678.000000	0.033489
677.000000	0.033310
676.000000	0.033258
675.000000	0.033251
674.000000	0.033240
673.000000	0.033246
672.000000	0.033279
671.000000	0.033233
670.000000	0.033134
669.000000	0.033196
668.000000	0.033312
667.000000	0.033385
666.000000	0.033274
665.000000	0.033301
664.000000	0.033384
663.000000	0.033408
662.000000	0.033461
661.000000	0.033579
660.000000	0.033618
659.000000	0.033592
658.000000	0.033604
657.000000	0.033687
656.000000	0.033707
655.000000	0.033727
654.000000	0.033793
653.000000	0.033858
652.000000	0.033742
651.000000	0.033781
650.000000	0.033819
649.000000	0.033823
648.000000	0.033718
647.000000	0.033667
646.000000	0.033717
645.000000	0.033648
644.000000	0.033640
643.000000	0.033732
642.000000	0.033735
641.000000	0.033591
640.000000	0.033659
639.000000	0.033711
638.000000	0.033713
637.000000	0.033682
636.000000	0.033731
635.000000	0.033728
634.000000	0.033825
633.000000	0.033899
632.000000	0.033970
631.000000	0.034067
630.000000	0.033903
629.000000	0.033942
628.000000	0.034034
627.000000	0.034093
626.000000	0.034119
625.000000	0.034279
624.000000	0.034298
623.000000	0.034276
622.000000	0.034250
621.000000	0.034370
620.000000	0.034446
619.000000	0.034411
618.000000	0.034469
617.000000	0.034517
616.000000	0.034510
615.000000	0.034533
614.000000	0.034624
613.000000	0.034701
612.000000	0.034580
611.000000	0.034576
610.000000	0.034649
609.000000	0.034571
608.000000	0.034490
607.000000	0.034666
606.000000	0.034608
605.000000	0.034629
604.000000	0.034547
603.000000	0.034704
602.000000	0.034640
601.000000	0.034594
600.000000	0.034542
599.000000	0.034526
598.000000	0.034473
597.000000	0.034425
596.000000	0.034517
595.000000	0.034470
594.000000	0.034412
593.000000	0.034471
592.000000	0.034582
591.000000	0.034479
590.000000	0.034478
589.000000	0.034555
588.000000	0.034612
587.000000	0.034545
586.000000	0.034592
585.000000	0.034583
584.000000	0.034617
583.000000	0.034502
582.000000	0.034623
581.000000	0.034680
580.000000	0.034677
579.000000	0.034588
578.000000	0.034737
577.000000	0.034761
576.000000	0.034694
575.000000	0.034681
574.000000	0.034733
573.000000	0.034705
572.000000	0.034528
571.000000	0.034669
570.000000	0.034665
569.000000	0.034582
568.000000	0.034506
567.000000	0.034545
566.000000	0.034523
565.000000	0.034360
564.000000	0.034387
563.000000	0.034287
562.000000	0.034301
561.000000	0.034254
560.000000	0.034259
559.000000	0.034123
558.000000	0.034254
557.000000	0.034232
556.000000	0.034297
555.000000	0.034095
554.000000	0.034051
553.000000	0.034118
552.000000	0.033977
551.000000	0.033866
550.000000	0.033884
549.000000	0.033870
548.000000	0.033747
547.000000	0.033761
546.000000	0.033830
545.000000	0.033701
544.000000	0.033656
543.000000	0.033773
542.000000	0.033757
541.000000	0.033750
540.000000	0.033760
539.000000	0.033823
538.000000	0.033767
537.000000	0.033750
536.000000	0.033780
535.000000	0.033837
534.000000	0.033873
533.000000	0.033941
532.000000	0.034008
531.000000	0.033957
530.000000	0.033914
529.000000	0.034006
528.000000	0.034112
527.000000	0.034074
526.000000	0.034022
525.000000	0.034120
524.000000	0.034122
523.000000	0.034130
522.000000	0.034152
521.000000	0.034252
520.000000	0.034292
519.000000	0.034236
518.000000	0.034258
517.000000	0.034313
516.000000	0.034421
515.000000	0.034524
514.000000	0.034506
513.000000	0.034554
512.000000	0.034487
511.000000	0.034502
510.000000	0.034631
509.000000	0.034526
508.000000	0.034489
507.000000	0.034567
506.000000	0.034572
505.000000	0.034553
504.000000	0.034650
503.000000	0.034708
502.000000	0.034743
501.000000	0.034822
500.000000	0.034898
499.000000	0.034915
498.000000	0.035017
497.000000	0.035090
496.000000	0.035157
495.000000	0.035195
494.000000	0.035205
493.000000	0.035271
492.000000	0.035410
491.000000	0.035501
490.000000	0.035562
489.000000	0.035697
488.000000	0.035680
487.000000	0.035611
486.000000	0.035758
485.000000	0.035862
484.000000	0.035896
483.000000	0.035943
482.000000	0.035947
481.000000	0.035914
480.000000	0.035943
479.000000	0.035982
478.000000	0.035975
477.000000	0.036037
476.000000	0.036022
475.000000	0.036022
474.000000	0.036056
473.000000	0.036042
472.000000	0.036080
471.000000	0.036111
470.000000	0.035988
469.000000	0.035994
468.000000	0.036050
467.000000	0.036120
466.000000	0.036052
465.000000	0.036005
464.000000	0.036052
463.000000	0.036164
462.000000	0.036061
461.000000	0.036005
460.000000	0.036043
459.000000	0.036073
458.000000	0.035975
457.000000	0.035924
456.000000	0.036017
455.000000	0.035983
454.000000	0.036017
453.000000	0.036047
452.000000	0.035859
451.000000	0.035934
450.000000	0.035893
449.000000	0.035863
448.000000	0.035717
447.000000	0.035808
446.000000	0.035814
445.000000	0.035824
444.000000	0.035773
443.000000	0.035810
442.000000	0.035865
441.000000	0.035928
440.000000	0.035784
439.000000	0.035845
438.000000	0.035903
437.000000	0.035887
436.000000	0.035836
435.000000	0.035918
434.000000	0.035814
433.000000	0.035917
432.000000	0.035920
431.000000	0.036019
430.000000	0.035914
429.000000	0.036019
428.000000	0.035917
427.000000	0.035968
426.000000	0.036019
425.000000	0.036044
424.000000	0.036111
423.000000	0.036130
422.000000	0.035957
421.000000	0.036076
420.000000	0.036103
419.000000	0.036077
418.000000	0.036043
417.000000	0.036003
416.000000	0.035849
415.000000	0.035871
414.000000	0.035969
413.000000	0.035970
412.000000	0.035954
411.000000	0.035977
410.000000	0.035977
409.000000	0.036022
408.000000	0.035982
407.000000	0.036058
406.000000	0.036154
405.000000	0.036166
404.000000	0.035990
403.000000	0.036189
402.000000	0.036210
401.000000	0.036259
400.000000	0.036249
399.000000	0.036418
398.000000	0.036359
397.000000	0.036522
396.000000	0.036574
395.000000	0.036743
394.000000	0.036681
393.000000	0.036805
392.000000	0.036693
391.000000	0.036862
390.000000	0.036896
389.000000	0.036977
388.000000	0.037098
387.000000	0.037164
386.000000	0.037071
385.000000	0.037245
384.000000	0.037517
383.000000	0.037497
382.000000	0.037474
381.000000	0.037658
380.000000	0.037561
379.000000	0.037738
378.000000	0.037907
377.000000	0.037888
376.000000	0.037889
375.000000	0.037935
374.000000	0.038193
373.000000	0.038201
372.000000	0.038218
371.000000	0.038275
370.000000	0.038264
369.000000	0.038232
368.000000	0.038323
367.000000	0.038519
366.000000	0.038415
365.000000	0.038539
364.000000	0.038625
363.000000	0.038694
362.000000	0.038698
361.000000	0.038730
360.000000	0.038884
359.000000	0.038893
358.000000	0.038933
357.000000	0.038933
356.000000	0.039001
355.000000	0.039070
354.000000	0.039106
353.000000	0.039114
352.000000	0.039243
351.000000	0.039238
350.000000	0.039276
349.000000	0.039319
348.000000	0.039543
347.000000	0.039387
346.000000	0.039370
345.000000	0.039427
344.000000	0.039445
343.000000	0.039523
342.000000	0.039540
341.000000	0.039537
340.000000	0.039465
339.000000	0.039782
338.000000	0.039826
337.000000	0.039710
336.000000	0.039757
335.000000	0.039816
334.000000	0.039769
333.000000	0.039885
332.000000	0.039835
331.000000	0.040021
330.000000	0.040124
329.000000	0.040135
328.000000	0.040118
327.000000	0.040335
326.000000	0.040419
325.000000	0.040495
324.000000	0.040565
323.000000	0.040445
322.000000	0.040466
321.000000	0.040717
320.000000	0.040823
319.000000	0.040867
318.000000	0.041360
317.000000	0.042439
316.000000	0.042493
315.000000	0.042733
314.000000	0.042858
313.000000	0.042917
312.000000	0.043075
311.000000	0.043151
310.000000	0.043190
309.000000	0.043273
308.000000	0.043524
307.000000	0.043778
306.000000	0.043726
305.000000	0.043746
304.000000	0.043871
303.000000	0.044039
302.000000	0.044135
301.000000	0.044297
300.000000	0.044398
299.000000	0.044336
298.000000	0.044430
297.000000	0.044699
296.000000	0.044797
295.000000	0.044809
294.000000	0.045017
293.000000	0.045166
292.000000	0.045200
291.000000	0.045359
290.000000	0.045756
289.000000	0.045985
288.000000	0.046010
287.000000	0.045953
286.000000	0.046029
285.000000	0.046314
284.000000	0.046477
283.000000	0.046640
282.000000	0.046749
281.000000	0.046767
280.000000	0.046904
279.000000	0.047103
278.000000	0.047247
277.000000	0.047344
276.000000	0.047409
275.000000	0.047542
274.000000	0.047655
273.000000	0.047758
272.000000	0.047983
271.000000	0.048189
270.000000	0.048204
269.000000	0.048292
268.000000	0.048472
267.000000	0.048650
266.000000	0.048749
265.000000	0.048931
264.000000	0.049092
263.000000	0.049140
262.000000	0.049215
261.000000	0.049468
260.000000	0.049755
259.000000	0.049801
258.000000	0.049994
257.000000	0.050092
256.000000	0.050310
255.000000	0.050591
254.000000	0.050786
253.000000	0.050979
252.000000	0.051164
251.000000	0.051370
250.000000	0.051602
249.000000	0.051997
248.000000	0.052295
247.000000	0.052627
246.000000	0.052936
245.000000	0.053150
244.000000	0.053385
243.000000	0.054079
242.000000	0.054450
241.000000	0.054629
240.000000	0.055047
239.000000	0.055424
238.000000	0.055855
237.000000	0.056375
236.000000	0.056995
235.000000	0.057445
234.000000	0.057868
233.000000	0.058383
232.000000	0.059133
231.000000	0.059601
230.000000	0.060085
229.000000	0.060539
228.000000	0.061331
227.000000	0.061688
226.000000	0.062515
225.000000	0.063247
224.000000	0.063905
223.000000	0.064702
222.000000	0.065428
221.000000	0.066311
220.000000	0.067156
219.000000	0.068043
218.000000	0.068827
217.000000	0.070146
216.000000	0.071087
215.000000	0.072340
214.000000	0.073531
213.000000	0.075027
212.000000	0.076458
211.000000	0.078224
210.000000	0.080143
209.000000	0.082191
208.000000	0.084154
207.000000	0.086438
206.000000	0.089137
205.000000	0.092100
204.000000	0.095218
203.000000	0.098906
202.000000	0.102626
201.000000	0.107058
200.000000	0.112290
