PE UV       SUBTECH     SPECTRUM    ASCII       PEDS        4.00        
   -1
MQ22005.Sample.Raw.asc
11/05/20
09:50:43.00
11/05/20
09:50:43.00
Hermanni Kaartokallio

200.000000
1
Lambda 650
650N8121101
PerkinElmer UV WinLab 6.0.2.0723 / 1.61.00 Lambda 650

0
0
2
0
0
UV/VIS
1
1
1
uv/vis/nir detector
0
0
0
0
Fix
 
0
0.24
0
0
0
 
 
 
0
 
0
319.2
0
Front
100
 
 
 
0
0
0
 
0
 
 
 
0
 
 
0
0
0
0
0
 
 
 
 
0
0
#HDR
-1
-1
#GR
nm
A
1.0
0.0
800.000000
-1.000000
601
8
0.113903
0.033785
#DATA
800.000000	0.043020
799.000000	0.042941
798.000000	0.043153
797.000000	0.043391
796.000000	0.043345
795.000000	0.043458
794.000000	0.043454
793.000000	0.043831
792.000000	0.043959
791.000000	0.044080
790.000000	0.044555
789.000000	0.044603
788.000000	0.044868
787.000000	0.044945
786.000000	0.045021
785.000000	0.045073
784.000000	0.045125
783.000000	0.045354
782.000000	0.045342
781.000000	0.045353
780.000000	0.045301
779.000000	0.045434
778.000000	0.045379
777.000000	0.045302
776.000000	0.045347
775.000000	0.045394
774.000000	0.045230
773.000000	0.045322
772.000000	0.045374
771.000000	0.045239
770.000000	0.045265
769.000000	0.045375
768.000000	0.045350
767.000000	0.045315
766.000000	0.045489
765.000000	0.045782
764.000000	0.045685
763.000000	0.045858
762.000000	0.045820
761.000000	0.045892
760.000000	0.045923
759.000000	0.045901
758.000000	0.045935
757.000000	0.045967
756.000000	0.045821
755.000000	0.045756
754.000000	0.045775
753.000000	0.045786
752.000000	0.045637
751.000000	0.045611
750.000000	0.045680
749.000000	0.045592
748.000000	0.045498
747.000000	0.045505
746.000000	0.045431
745.000000	0.045343
744.000000	0.045252
743.000000	0.045168
742.000000	0.045050
741.000000	0.044958
740.000000	0.044841
739.000000	0.044636
738.000000	0.044330
737.000000	0.044093
736.000000	0.043858
735.000000	0.043490
734.000000	0.043154
733.000000	0.042722
732.000000	0.042241
731.000000	0.041758
730.000000	0.041345
729.000000	0.041004
728.000000	0.040566
727.000000	0.040138
726.000000	0.039954
725.000000	0.039811
724.000000	0.039454
723.000000	0.039205
722.000000	0.039009
721.000000	0.038735
720.000000	0.038416
719.000000	0.038131
718.000000	0.037988
717.000000	0.037672
716.000000	0.037289
715.000000	0.037067
714.000000	0.036854
713.000000	0.036561
712.000000	0.036389
711.000000	0.036291
710.000000	0.036092
709.000000	0.035890
708.000000	0.035772
707.000000	0.035736
706.000000	0.035630
705.000000	0.035520
704.000000	0.035649
703.000000	0.035645
702.000000	0.035560
701.000000	0.035635
700.000000	0.035671
699.000000	0.035631
698.000000	0.035595
697.000000	0.035447
696.000000	0.035405
695.000000	0.035459
694.000000	0.035422
693.000000	0.035398
692.000000	0.035271
691.000000	0.035152
690.000000	0.035111
689.000000	0.035080
688.000000	0.034980
687.000000	0.034935
686.000000	0.034812
685.000000	0.034691
684.000000	0.034650
683.000000	0.034577
682.000000	0.034435
681.000000	0.034265
680.000000	0.034250
679.000000	0.034250
678.000000	0.034078
677.000000	0.033965
676.000000	0.033980
675.000000	0.033927
674.000000	0.033849
673.000000	0.033894
672.000000	0.033936
671.000000	0.033882
670.000000	0.033785
669.000000	0.033933
668.000000	0.034073
667.000000	0.034068
666.000000	0.034065
665.000000	0.034141
664.000000	0.034153
663.000000	0.034150
662.000000	0.034267
661.000000	0.034409
660.000000	0.034368
659.000000	0.034365
658.000000	0.034454
657.000000	0.034451
656.000000	0.034445
655.000000	0.034572
654.000000	0.034664
653.000000	0.034657
652.000000	0.034516
651.000000	0.034609
650.000000	0.034575
649.000000	0.034514
648.000000	0.034489
647.000000	0.034525
646.000000	0.034414
645.000000	0.034321
644.000000	0.034339
643.000000	0.034326
642.000000	0.034284
641.000000	0.034184
640.000000	0.034215
639.000000	0.034182
638.000000	0.034126
637.000000	0.034173
636.000000	0.034195
635.000000	0.034191
634.000000	0.034191
633.000000	0.034346
632.000000	0.034391
631.000000	0.034415
630.000000	0.034477
629.000000	0.034626
628.000000	0.034565
627.000000	0.034614
626.000000	0.034760
625.000000	0.034883
624.000000	0.034858
623.000000	0.034826
622.000000	0.034887
621.000000	0.034987
620.000000	0.034981
619.000000	0.035029
618.000000	0.035162
617.000000	0.035278
616.000000	0.035251
615.000000	0.035119
614.000000	0.035177
613.000000	0.035186
612.000000	0.035126
611.000000	0.035215
610.000000	0.035264
609.000000	0.035148
608.000000	0.035223
607.000000	0.035351
606.000000	0.035211
605.000000	0.035273
604.000000	0.035284
603.000000	0.035363
602.000000	0.035232
601.000000	0.035307
600.000000	0.035206
599.000000	0.035155
598.000000	0.035057
597.000000	0.035319
596.000000	0.035244
595.000000	0.035210
594.000000	0.035152
593.000000	0.035240
592.000000	0.035275
591.000000	0.035098
590.000000	0.035362
589.000000	0.035376
588.000000	0.035343
587.000000	0.035303
586.000000	0.035362
585.000000	0.035232
584.000000	0.035295
583.000000	0.035302
582.000000	0.035436
581.000000	0.035407
580.000000	0.035391
579.000000	0.035381
578.000000	0.035533
577.000000	0.035491
576.000000	0.035507
575.000000	0.035528
574.000000	0.035440
573.000000	0.035426
572.000000	0.035394
571.000000	0.035481
570.000000	0.035346
569.000000	0.035334
568.000000	0.035290
567.000000	0.035207
566.000000	0.035174
565.000000	0.035074
564.000000	0.035148
563.000000	0.035003
562.000000	0.034972
561.000000	0.034870
560.000000	0.034883
559.000000	0.034808
558.000000	0.034867
557.000000	0.034779
556.000000	0.034601
555.000000	0.034621
554.000000	0.034617
553.000000	0.034599
552.000000	0.034527
551.000000	0.034551
550.000000	0.034544
549.000000	0.034474
548.000000	0.034372
547.000000	0.034447
546.000000	0.034450
545.000000	0.034332
544.000000	0.034331
543.000000	0.034437
542.000000	0.034340
541.000000	0.034330
540.000000	0.034436
539.000000	0.034497
538.000000	0.034399
537.000000	0.034417
536.000000	0.034492
535.000000	0.034476
534.000000	0.034474
533.000000	0.034591
532.000000	0.034673
531.000000	0.034580
530.000000	0.034579
529.000000	0.034724
528.000000	0.034730
527.000000	0.034713
526.000000	0.034719
525.000000	0.034826
524.000000	0.034711
523.000000	0.034744
522.000000	0.034869
521.000000	0.034903
520.000000	0.034884
519.000000	0.034903
518.000000	0.034942
517.000000	0.034917
516.000000	0.034954
515.000000	0.035007
514.000000	0.035030
513.000000	0.034987
512.000000	0.035009
511.000000	0.035102
510.000000	0.035131
509.000000	0.035048
508.000000	0.035094
507.000000	0.035172
506.000000	0.035239
505.000000	0.035295
504.000000	0.035401
503.000000	0.035431
502.000000	0.035389
501.000000	0.035446
500.000000	0.035531
499.000000	0.035534
498.000000	0.035591
497.000000	0.035689
496.000000	0.035669
495.000000	0.035523
494.000000	0.035534
493.000000	0.035755
492.000000	0.035789
491.000000	0.035713
490.000000	0.035792
489.000000	0.035876
488.000000	0.035891
487.000000	0.035892
486.000000	0.035984
485.000000	0.036009
484.000000	0.036028
483.000000	0.036072
482.000000	0.036140
481.000000	0.036102
480.000000	0.036067
479.000000	0.036156
478.000000	0.036190
477.000000	0.036147
476.000000	0.036191
475.000000	0.036297
474.000000	0.036243
473.000000	0.036221
472.000000	0.036363
471.000000	0.036367
470.000000	0.036265
469.000000	0.036305
468.000000	0.036433
467.000000	0.036397
466.000000	0.036270
465.000000	0.036239
464.000000	0.036390
463.000000	0.036418
462.000000	0.036340
461.000000	0.036413
460.000000	0.036417
459.000000	0.036281
458.000000	0.036312
457.000000	0.036395
456.000000	0.036312
455.000000	0.036260
454.000000	0.036270
453.000000	0.036246
452.000000	0.036178
451.000000	0.036208
450.000000	0.036235
449.000000	0.036248
448.000000	0.036184
447.000000	0.036207
446.000000	0.036231
445.000000	0.036193
444.000000	0.036111
443.000000	0.036249
442.000000	0.036320
441.000000	0.036306
440.000000	0.036236
439.000000	0.036283
438.000000	0.036244
437.000000	0.036213
436.000000	0.036242
435.000000	0.036232
434.000000	0.036210
433.000000	0.036253
432.000000	0.036362
431.000000	0.036349
430.000000	0.036270
429.000000	0.036332
428.000000	0.036393
427.000000	0.036314
426.000000	0.036297
425.000000	0.036356
424.000000	0.036488
423.000000	0.036320
422.000000	0.036364
421.000000	0.036484
420.000000	0.036450
419.000000	0.036411
418.000000	0.036478
417.000000	0.036427
416.000000	0.036327
415.000000	0.036334
414.000000	0.036555
413.000000	0.036529
412.000000	0.036443
411.000000	0.036387
410.000000	0.036553
409.000000	0.036510
408.000000	0.036513
407.000000	0.036578
406.000000	0.036618
405.000000	0.036429
404.000000	0.036534
403.000000	0.036710
402.000000	0.036691
401.000000	0.036681
400.000000	0.036784
399.000000	0.036893
398.000000	0.036971
397.000000	0.037040
396.000000	0.037015
395.000000	0.037123
394.000000	0.037019
393.000000	0.037100
392.000000	0.037398
391.000000	0.037269
390.000000	0.037390
389.000000	0.037442
388.000000	0.037578
387.000000	0.037400
386.000000	0.037546
385.000000	0.037937
384.000000	0.037791
383.000000	0.037876
382.000000	0.037768
381.000000	0.038208
380.000000	0.037943
379.000000	0.037922
378.000000	0.038170
377.000000	0.038103
376.000000	0.038232
375.000000	0.038334
374.000000	0.038784
373.000000	0.038551
372.000000	0.038529
371.000000	0.038756
370.000000	0.038796
369.000000	0.038748
368.000000	0.038946
367.000000	0.039046
366.000000	0.038974
365.000000	0.038991
364.000000	0.039196
363.000000	0.039201
362.000000	0.039065
361.000000	0.039336
360.000000	0.039489
359.000000	0.039394
358.000000	0.039409
357.000000	0.039548
356.000000	0.039574
355.000000	0.039613
354.000000	0.039694
353.000000	0.039715
352.000000	0.039848
351.000000	0.039854
350.000000	0.040016
349.000000	0.039841
348.000000	0.039784
347.000000	0.039804
346.000000	0.040074
345.000000	0.039992
344.000000	0.040005
343.000000	0.040106
342.000000	0.040134
341.000000	0.040034
340.000000	0.040052
339.000000	0.040213
338.000000	0.040203
337.000000	0.040214
336.000000	0.040267
335.000000	0.040310
334.000000	0.040317
333.000000	0.040385
332.000000	0.040446
331.000000	0.040529
330.000000	0.040528
329.000000	0.040487
328.000000	0.040695
327.000000	0.040855
326.000000	0.040788
325.000000	0.040905
324.000000	0.041015
323.000000	0.040919
322.000000	0.041000
321.000000	0.041230
320.000000	0.041259
319.000000	0.041275
318.000000	0.042059
317.000000	0.043539
316.000000	0.043611
315.000000	0.043823
314.000000	0.043966
313.000000	0.043986
312.000000	0.044179
311.000000	0.044219
310.000000	0.044173
309.000000	0.044309
308.000000	0.044535
307.000000	0.044702
306.000000	0.044651
305.000000	0.044688
304.000000	0.044908
303.000000	0.045011
302.000000	0.045075
301.000000	0.045248
300.000000	0.045380
299.000000	0.045363
298.000000	0.045482
297.000000	0.045726
296.000000	0.045763
295.000000	0.045901
294.000000	0.046183
293.000000	0.046254
292.000000	0.046184
291.000000	0.046375
290.000000	0.046734
289.000000	0.046891
288.000000	0.046940
287.000000	0.047051
286.000000	0.047220
285.000000	0.047334
284.000000	0.047450
283.000000	0.047627
282.000000	0.047729
281.000000	0.047758
280.000000	0.047952
279.000000	0.048169
278.000000	0.048229
277.000000	0.048367
276.000000	0.048569
275.000000	0.048653
274.000000	0.048712
273.000000	0.048860
272.000000	0.049109
271.000000	0.049251
270.000000	0.049326
269.000000	0.049460
268.000000	0.049613
267.000000	0.049732
266.000000	0.049829
265.000000	0.050075
264.000000	0.050236
263.000000	0.050233
262.000000	0.050362
261.000000	0.050638
260.000000	0.050790
259.000000	0.050848
258.000000	0.051077
257.000000	0.051257
256.000000	0.051406
255.000000	0.051636
254.000000	0.051969
253.000000	0.052089
252.000000	0.052210
251.000000	0.052519
250.000000	0.052815
249.000000	0.053074
248.000000	0.053380
247.000000	0.053803
246.000000	0.054061
245.000000	0.054281
244.000000	0.054656
243.000000	0.055146
242.000000	0.055420
241.000000	0.055761
240.000000	0.056210
239.000000	0.056589
238.000000	0.057064
237.000000	0.057592
236.000000	0.058154
235.000000	0.058549
234.000000	0.059003
233.000000	0.059540
232.000000	0.060201
231.000000	0.060678
230.000000	0.061235
229.000000	0.061721
228.000000	0.062237
227.000000	0.062822
226.000000	0.063661
225.000000	0.064350
224.000000	0.064879
223.000000	0.065648
222.000000	0.066556
221.000000	0.067356
220.000000	0.068134
219.000000	0.069131
218.000000	0.070003
217.000000	0.071126
216.000000	0.072188
215.000000	0.073463
214.000000	0.074832
213.000000	0.076347
212.000000	0.077825
211.000000	0.079656
210.000000	0.081605
209.000000	0.083442
208.000000	0.085503
207.000000	0.087925
206.000000	0.090700
205.000000	0.093563
204.000000	0.096749
203.000000	0.100375
202.000000	0.104261
201.000000	0.108684
200.000000	0.113903
