PE UV       SUBTECH     SPECTRUM    ASCII       PEDS        4.00        
   -1
MQ32005.Sample.Raw.asc
11/05/20
12:56:11.00
11/05/20
12:56:11.00
Hermanni Kaartokallio

200.000000
1
Lambda 650
650N8121101
PerkinElmer UV WinLab 6.0.2.0723 / 1.61.00 Lambda 650

0
0
2
0
0
UV/VIS
1
1
1
uv/vis/nir detector
0
0
0
0
Fix
 
0
0.24
0
0
0
 
 
 
0
 
0
319.2
0
Front
100
 
 
 
0
0
0
 
0
 
 
 
0
 
 
0
0
0
0
0
 
 
 
 
0
0
#HDR
-1
-1
#GR
nm
A
1.0
0.0
800.000000
-1.000000
601
8
0.116050
0.036023
#DATA
800.000000	0.046260
799.000000	0.046214
798.000000	0.046614
797.000000	0.046577
796.000000	0.046595
795.000000	0.046643
794.000000	0.046604
793.000000	0.046873
792.000000	0.047100
791.000000	0.047140
790.000000	0.047296
789.000000	0.047415
788.000000	0.047576
787.000000	0.047654
786.000000	0.047829
785.000000	0.047856
784.000000	0.047751
783.000000	0.047754
782.000000	0.047687
781.000000	0.047791
780.000000	0.047845
779.000000	0.047707
778.000000	0.047538
777.000000	0.047510
776.000000	0.047344
775.000000	0.047391
774.000000	0.047293
773.000000	0.047237
772.000000	0.047103
771.000000	0.046986
770.000000	0.047101
769.000000	0.047052
768.000000	0.047109
767.000000	0.046972
766.000000	0.046936
765.000000	0.047102
764.000000	0.047007
763.000000	0.047069
762.000000	0.047250
761.000000	0.047194
760.000000	0.047152
759.000000	0.047204
758.000000	0.047308
757.000000	0.047380
756.000000	0.047509
755.000000	0.047371
754.000000	0.047318
753.000000	0.047303
752.000000	0.047230
751.000000	0.047304
750.000000	0.047630
749.000000	0.047514
748.000000	0.047432
747.000000	0.047524
746.000000	0.047577
745.000000	0.047562
744.000000	0.047719
743.000000	0.047655
742.000000	0.047451
741.000000	0.047438
740.000000	0.047428
739.000000	0.047291
738.000000	0.047145
737.000000	0.046909
736.000000	0.046651
735.000000	0.046214
734.000000	0.045907
733.000000	0.045545
732.000000	0.045096
731.000000	0.044511
730.000000	0.043979
729.000000	0.043655
728.000000	0.043222
727.000000	0.042863
726.000000	0.042633
725.000000	0.042363
724.000000	0.041944
723.000000	0.041581
722.000000	0.041408
721.000000	0.041232
720.000000	0.040979
719.000000	0.040553
718.000000	0.040254
717.000000	0.039896
716.000000	0.039483
715.000000	0.039326
714.000000	0.039085
713.000000	0.038659
712.000000	0.038311
711.000000	0.038115
710.000000	0.037849
709.000000	0.037711
708.000000	0.037678
707.000000	0.037578
706.000000	0.037437
705.000000	0.037296
704.000000	0.037332
703.000000	0.037331
702.000000	0.037343
701.000000	0.037361
700.000000	0.037455
699.000000	0.037500
698.000000	0.037417
697.000000	0.037331
696.000000	0.037273
695.000000	0.037234
694.000000	0.037338
693.000000	0.037563
692.000000	0.037528
691.000000	0.037454
690.000000	0.037385
689.000000	0.037265
688.000000	0.037313
687.000000	0.037415
686.000000	0.037381
685.000000	0.037215
684.000000	0.037154
683.000000	0.037194
682.000000	0.037199
681.000000	0.037010
680.000000	0.036934
679.000000	0.037007
678.000000	0.036893
677.000000	0.036828
676.000000	0.036973
675.000000	0.036990
674.000000	0.036930
673.000000	0.036990
672.000000	0.037080
671.000000	0.037085
670.000000	0.037164
669.000000	0.037368
668.000000	0.037432
667.000000	0.037489
666.000000	0.037524
665.000000	0.037595
664.000000	0.037766
663.000000	0.037616
662.000000	0.037693
661.000000	0.037938
660.000000	0.037931
659.000000	0.037891
658.000000	0.038064
657.000000	0.038085
656.000000	0.037988
655.000000	0.037989
654.000000	0.038048
653.000000	0.038030
652.000000	0.038031
651.000000	0.038100
650.000000	0.038036
649.000000	0.037920
648.000000	0.037804
647.000000	0.037795
646.000000	0.037879
645.000000	0.037677
644.000000	0.037496
643.000000	0.037446
642.000000	0.037447
641.000000	0.037216
640.000000	0.037282
639.000000	0.037269
638.000000	0.037174
637.000000	0.036998
636.000000	0.036947
635.000000	0.036740
634.000000	0.036836
633.000000	0.036954
632.000000	0.036972
631.000000	0.036983
630.000000	0.036930
629.000000	0.037101
628.000000	0.037157
627.000000	0.037182
626.000000	0.037180
625.000000	0.037314
624.000000	0.037362
623.000000	0.037300
622.000000	0.037493
621.000000	0.037520
620.000000	0.037510
619.000000	0.037517
618.000000	0.037682
617.000000	0.037746
616.000000	0.037825
615.000000	0.037909
614.000000	0.037879
613.000000	0.037813
612.000000	0.037870
611.000000	0.037914
610.000000	0.038052
609.000000	0.037884
608.000000	0.037711
607.000000	0.037871
606.000000	0.037847
605.000000	0.037889
604.000000	0.038085
603.000000	0.038118
602.000000	0.038013
601.000000	0.037967
600.000000	0.037983
599.000000	0.037937
598.000000	0.038050
597.000000	0.037927
596.000000	0.037900
595.000000	0.037888
594.000000	0.037857
593.000000	0.037842
592.000000	0.037959
591.000000	0.038045
590.000000	0.038128
589.000000	0.038011
588.000000	0.038014
587.000000	0.037941
586.000000	0.037989
585.000000	0.038090
584.000000	0.038029
583.000000	0.037905
582.000000	0.037971
581.000000	0.037974
580.000000	0.038025
579.000000	0.038015
578.000000	0.038000
577.000000	0.037983
576.000000	0.037994
575.000000	0.038023
574.000000	0.038016
573.000000	0.038041
572.000000	0.037872
571.000000	0.038001
570.000000	0.037784
569.000000	0.037906
568.000000	0.037748
567.000000	0.037787
566.000000	0.037626
565.000000	0.037364
564.000000	0.037317
563.000000	0.037349
562.000000	0.037191
561.000000	0.037064
560.000000	0.037231
559.000000	0.036983
558.000000	0.036892
557.000000	0.036845
556.000000	0.036901
555.000000	0.036786
554.000000	0.036548
553.000000	0.036472
552.000000	0.036432
551.000000	0.036573
550.000000	0.036521
549.000000	0.036347
548.000000	0.036348
547.000000	0.036264
546.000000	0.036252
545.000000	0.036154
544.000000	0.036093
543.000000	0.036085
542.000000	0.036023
541.000000	0.036037
540.000000	0.036228
539.000000	0.036101
538.000000	0.036106
537.000000	0.036209
536.000000	0.036332
535.000000	0.036144
534.000000	0.036288
533.000000	0.036363
532.000000	0.036375
531.000000	0.036433
530.000000	0.036610
529.000000	0.036573
528.000000	0.036503
527.000000	0.036558
526.000000	0.036570
525.000000	0.036688
524.000000	0.036754
523.000000	0.036646
522.000000	0.036699
521.000000	0.036775
520.000000	0.036904
519.000000	0.037017
518.000000	0.037082
517.000000	0.036862
516.000000	0.036970
515.000000	0.037071
514.000000	0.037060
513.000000	0.037117
512.000000	0.037255
511.000000	0.037247
510.000000	0.037199
509.000000	0.037161
508.000000	0.037200
507.000000	0.037368
506.000000	0.037467
505.000000	0.037487
504.000000	0.037524
503.000000	0.037494
502.000000	0.037488
501.000000	0.037679
500.000000	0.037803
499.000000	0.037713
498.000000	0.037763
497.000000	0.037833
496.000000	0.037877
495.000000	0.037989
494.000000	0.038079
493.000000	0.038075
492.000000	0.038072
491.000000	0.038091
490.000000	0.038155
489.000000	0.038273
488.000000	0.038293
487.000000	0.038332
486.000000	0.038359
485.000000	0.038248
484.000000	0.038286
483.000000	0.038381
482.000000	0.038366
481.000000	0.038287
480.000000	0.038267
479.000000	0.038297
478.000000	0.038272
477.000000	0.038337
476.000000	0.038418
475.000000	0.038308
474.000000	0.038177
473.000000	0.038197
472.000000	0.038229
471.000000	0.038238
470.000000	0.038213
469.000000	0.038176
468.000000	0.038226
467.000000	0.038281
466.000000	0.038184
465.000000	0.038243
464.000000	0.038297
463.000000	0.038179
462.000000	0.038003
461.000000	0.038060
460.000000	0.038048
459.000000	0.038001
458.000000	0.038057
457.000000	0.038037
456.000000	0.037864
455.000000	0.037813
454.000000	0.037865
453.000000	0.037938
452.000000	0.037789
451.000000	0.037672
450.000000	0.037740
449.000000	0.037743
448.000000	0.037672
447.000000	0.037895
446.000000	0.037843
445.000000	0.037654
444.000000	0.037531
443.000000	0.037666
442.000000	0.037670
441.000000	0.037771
440.000000	0.037772
439.000000	0.037759
438.000000	0.037737
437.000000	0.037712
436.000000	0.037749
435.000000	0.037907
434.000000	0.037870
433.000000	0.037831
432.000000	0.037792
431.000000	0.037715
430.000000	0.037660
429.000000	0.037869
428.000000	0.037967
427.000000	0.037829
426.000000	0.037798
425.000000	0.037818
424.000000	0.037870
423.000000	0.037963
422.000000	0.037980
421.000000	0.037915
420.000000	0.037886
419.000000	0.037802
418.000000	0.037877
417.000000	0.038006
416.000000	0.037878
415.000000	0.037747
414.000000	0.037972
413.000000	0.037966
412.000000	0.037899
411.000000	0.038041
410.000000	0.038113
409.000000	0.038061
408.000000	0.038012
407.000000	0.038101
406.000000	0.038194
405.000000	0.038293
404.000000	0.038120
403.000000	0.038237
402.000000	0.038149
401.000000	0.038141
400.000000	0.038198
399.000000	0.038490
398.000000	0.038436
397.000000	0.038396
396.000000	0.038460
395.000000	0.038493
394.000000	0.038512
393.000000	0.038851
392.000000	0.038782
391.000000	0.038697
390.000000	0.038623
389.000000	0.038833
388.000000	0.038963
387.000000	0.039063
386.000000	0.039103
385.000000	0.039284
384.000000	0.039425
383.000000	0.039333
382.000000	0.039205
381.000000	0.039445
380.000000	0.039399
379.000000	0.039341
378.000000	0.039461
377.000000	0.039541
376.000000	0.039567
375.000000	0.039612
374.000000	0.039820
373.000000	0.039772
372.000000	0.039795
371.000000	0.040099
370.000000	0.040143
369.000000	0.039943
368.000000	0.040021
367.000000	0.040239
366.000000	0.040231
365.000000	0.040453
364.000000	0.040500
363.000000	0.040448
362.000000	0.040375
361.000000	0.040404
360.000000	0.040580
359.000000	0.040763
358.000000	0.040597
357.000000	0.040635
356.000000	0.040670
355.000000	0.040725
354.000000	0.040836
353.000000	0.041068
352.000000	0.041062
351.000000	0.040824
350.000000	0.040858
349.000000	0.040858
348.000000	0.040929
347.000000	0.041090
346.000000	0.041030
345.000000	0.040994
344.000000	0.041028
343.000000	0.041000
342.000000	0.041090
341.000000	0.041136
340.000000	0.041083
339.000000	0.041143
338.000000	0.041251
337.000000	0.041226
336.000000	0.041281
335.000000	0.041434
334.000000	0.041424
333.000000	0.041271
332.000000	0.041347
331.000000	0.041513
330.000000	0.041632
329.000000	0.041628
328.000000	0.041673
327.000000	0.041850
326.000000	0.041808
325.000000	0.041808
324.000000	0.041980
323.000000	0.042094
322.000000	0.042132
321.000000	0.042267
320.000000	0.042359
319.000000	0.042350
318.000000	0.042802
317.000000	0.043832
316.000000	0.043913
315.000000	0.044046
314.000000	0.044214
313.000000	0.044293
312.000000	0.044375
311.000000	0.044503
310.000000	0.044657
309.000000	0.044704
308.000000	0.044837
307.000000	0.044970
306.000000	0.045016
305.000000	0.045162
304.000000	0.045323
303.000000	0.045419
302.000000	0.045443
301.000000	0.045626
300.000000	0.045794
299.000000	0.045814
298.000000	0.045985
297.000000	0.046172
296.000000	0.046212
295.000000	0.046208
294.000000	0.046411
293.000000	0.046672
292.000000	0.046815
291.000000	0.046873
290.000000	0.047027
289.000000	0.047187
288.000000	0.047300
287.000000	0.047504
286.000000	0.047688
285.000000	0.047748
284.000000	0.047852
283.000000	0.047977
282.000000	0.048116
281.000000	0.048370
280.000000	0.048608
279.000000	0.048628
278.000000	0.048802
277.000000	0.048985
276.000000	0.049015
275.000000	0.049192
274.000000	0.049364
273.000000	0.049459
272.000000	0.049602
271.000000	0.049769
270.000000	0.049909
269.000000	0.050070
268.000000	0.050087
267.000000	0.050332
266.000000	0.050538
265.000000	0.050674
264.000000	0.050809
263.000000	0.051012
262.000000	0.051091
261.000000	0.051172
260.000000	0.051369
259.000000	0.051537
258.000000	0.051735
257.000000	0.052019
256.000000	0.052267
255.000000	0.052406
254.000000	0.052613
253.000000	0.052750
252.000000	0.052980
251.000000	0.053341
250.000000	0.053597
249.000000	0.053768
248.000000	0.054147
247.000000	0.054464
246.000000	0.054694
245.000000	0.055113
244.000000	0.055506
243.000000	0.055867
242.000000	0.056145
241.000000	0.056561
240.000000	0.056946
239.000000	0.057440
238.000000	0.057940
237.000000	0.058479
236.000000	0.058940
235.000000	0.059286
234.000000	0.059822
233.000000	0.060559
232.000000	0.061018
231.000000	0.061471
230.000000	0.062009
229.000000	0.062409
228.000000	0.062942
227.000000	0.063595
226.000000	0.064308
225.000000	0.064862
224.000000	0.065432
223.000000	0.066203
222.000000	0.067012
221.000000	0.067944
220.000000	0.068791
219.000000	0.069714
218.000000	0.070641
217.000000	0.071789
216.000000	0.072996
215.000000	0.074497
214.000000	0.075848
213.000000	0.077309
212.000000	0.078979
211.000000	0.080932
210.000000	0.082927
209.000000	0.085202
208.000000	0.087550
207.000000	0.089755
206.000000	0.092864
205.000000	0.095955
204.000000	0.099377
203.000000	0.102942
202.000000	0.106719
201.000000	0.110977
200.000000	0.116050
