PE UV       SUBTECH     SPECTRUM    ASCII       PEDS        4.00        
   -1
MQ42005.Sample.Raw.asc
11/05/20
13:46:24.00
11/05/20
13:46:24.00
Hermanni Kaartokallio

200.000000
1
Lambda 650
650N8121101
PerkinElmer UV WinLab 6.0.2.0723 / 1.61.00 Lambda 650

0
0
2
0
0
UV/VIS
1
1
1
uv/vis/nir detector
0
0
0
0
Fix
 
0
0.24
0
0
0
 
 
 
0
 
0
319.2
0
Front
100
 
 
 
0
0
0
 
0
 
 
 
0
 
 
0
0
0
0
0
 
 
 
 
0
0
#HDR
-1
-1
#GR
nm
A
1.0
0.0
800.000000
-1.000000
601
8
0.130872
0.037745
#DATA
800.000000	0.047170
799.000000	0.047122
798.000000	0.047411
797.000000	0.047421
796.000000	0.047646
795.000000	0.047594
794.000000	0.047338
793.000000	0.047758
792.000000	0.048044
791.000000	0.047995
790.000000	0.048191
789.000000	0.048394
788.000000	0.048540
787.000000	0.048517
786.000000	0.048672
785.000000	0.048522
784.000000	0.048675
783.000000	0.048642
782.000000	0.048656
781.000000	0.048651
780.000000	0.048550
779.000000	0.048603
778.000000	0.048456
777.000000	0.048311
776.000000	0.048152
775.000000	0.048190
774.000000	0.048185
773.000000	0.048197
772.000000	0.048108
771.000000	0.048032
770.000000	0.048003
769.000000	0.047967
768.000000	0.048024
767.000000	0.048045
766.000000	0.047993
765.000000	0.048079
764.000000	0.048048
763.000000	0.048266
762.000000	0.048343
761.000000	0.048323
760.000000	0.048424
759.000000	0.048383
758.000000	0.048461
757.000000	0.048605
756.000000	0.048705
755.000000	0.048737
754.000000	0.048502
753.000000	0.048587
752.000000	0.048473
751.000000	0.048396
750.000000	0.048652
749.000000	0.048693
748.000000	0.048616
747.000000	0.048654
746.000000	0.048763
745.000000	0.048741
744.000000	0.048692
743.000000	0.048658
742.000000	0.048613
741.000000	0.048615
740.000000	0.048547
739.000000	0.048394
738.000000	0.048134
737.000000	0.047910
736.000000	0.047633
735.000000	0.047335
734.000000	0.046935
733.000000	0.046475
732.000000	0.046029
731.000000	0.045579
730.000000	0.045125
729.000000	0.044697
728.000000	0.044290
727.000000	0.043878
726.000000	0.043650
725.000000	0.043399
724.000000	0.043059
723.000000	0.042756
722.000000	0.042474
721.000000	0.042215
720.000000	0.042004
719.000000	0.041628
718.000000	0.041250
717.000000	0.040933
716.000000	0.040564
715.000000	0.040308
714.000000	0.040044
713.000000	0.039697
712.000000	0.039379
711.000000	0.039136
710.000000	0.038900
709.000000	0.038760
708.000000	0.038616
707.000000	0.038382
706.000000	0.038265
705.000000	0.038193
704.000000	0.038208
703.000000	0.038240
702.000000	0.038256
701.000000	0.038211
700.000000	0.038132
699.000000	0.038105
698.000000	0.038177
697.000000	0.038185
696.000000	0.038189
695.000000	0.038230
694.000000	0.038194
693.000000	0.038203
692.000000	0.038205
691.000000	0.038283
690.000000	0.038305
689.000000	0.038139
688.000000	0.038061
687.000000	0.038094
686.000000	0.038022
685.000000	0.037986
684.000000	0.038010
683.000000	0.038017
682.000000	0.038034
681.000000	0.037957
680.000000	0.037867
679.000000	0.037856
678.000000	0.037768
677.000000	0.037763
676.000000	0.037891
675.000000	0.037925
674.000000	0.037932
673.000000	0.037960
672.000000	0.038026
671.000000	0.037975
670.000000	0.038081
669.000000	0.038335
668.000000	0.038359
667.000000	0.038393
666.000000	0.038418
665.000000	0.038522
664.000000	0.038668
663.000000	0.038729
662.000000	0.038767
661.000000	0.038920
660.000000	0.038968
659.000000	0.038990
658.000000	0.039139
657.000000	0.039196
656.000000	0.039098
655.000000	0.039152
654.000000	0.039183
653.000000	0.039188
652.000000	0.039224
651.000000	0.039322
650.000000	0.039215
649.000000	0.039108
648.000000	0.039042
647.000000	0.039038
646.000000	0.039012
645.000000	0.038922
644.000000	0.038828
643.000000	0.038744
642.000000	0.038675
641.000000	0.038482
640.000000	0.038524
639.000000	0.038474
638.000000	0.038265
637.000000	0.038181
636.000000	0.038183
635.000000	0.038088
634.000000	0.038182
633.000000	0.038282
632.000000	0.038236
631.000000	0.038257
630.000000	0.038236
629.000000	0.038370
628.000000	0.038435
627.000000	0.038421
626.000000	0.038411
625.000000	0.038556
624.000000	0.038533
623.000000	0.038531
622.000000	0.038861
621.000000	0.038903
620.000000	0.038821
619.000000	0.038764
618.000000	0.038921
617.000000	0.038967
616.000000	0.039030
615.000000	0.039185
614.000000	0.039202
613.000000	0.039078
612.000000	0.039070
611.000000	0.039176
610.000000	0.039342
609.000000	0.039221
608.000000	0.039203
607.000000	0.039381
606.000000	0.039205
605.000000	0.039244
604.000000	0.039444
603.000000	0.039514
602.000000	0.039227
601.000000	0.039305
600.000000	0.039332
599.000000	0.039427
598.000000	0.039256
597.000000	0.039202
596.000000	0.039249
595.000000	0.039229
594.000000	0.039209
593.000000	0.039326
592.000000	0.039386
591.000000	0.039366
590.000000	0.039284
589.000000	0.039418
588.000000	0.039398
587.000000	0.039380
586.000000	0.039594
585.000000	0.039433
584.000000	0.039340
583.000000	0.039340
582.000000	0.039479
581.000000	0.039554
580.000000	0.039654
579.000000	0.039422
578.000000	0.039473
577.000000	0.039477
576.000000	0.039446
575.000000	0.039547
574.000000	0.039646
573.000000	0.039369
572.000000	0.039194
571.000000	0.039381
570.000000	0.039331
569.000000	0.039282
568.000000	0.039318
567.000000	0.039149
566.000000	0.039079
565.000000	0.039076
564.000000	0.039019
563.000000	0.038899
562.000000	0.038830
561.000000	0.038759
560.000000	0.038849
559.000000	0.038651
558.000000	0.038678
557.000000	0.038530
556.000000	0.038400
555.000000	0.038377
554.000000	0.038417
553.000000	0.038299
552.000000	0.038112
551.000000	0.038071
550.000000	0.038057
549.000000	0.037986
548.000000	0.038009
547.000000	0.038003
546.000000	0.037909
545.000000	0.037856
544.000000	0.037745
543.000000	0.037832
542.000000	0.037922
541.000000	0.037903
540.000000	0.037866
539.000000	0.037914
538.000000	0.037848
537.000000	0.037889
536.000000	0.038104
535.000000	0.038059
534.000000	0.038004
533.000000	0.038078
532.000000	0.038125
531.000000	0.038194
530.000000	0.038258
529.000000	0.038238
528.000000	0.038283
527.000000	0.038291
526.000000	0.038294
525.000000	0.038409
524.000000	0.038522
523.000000	0.038475
522.000000	0.038400
521.000000	0.038497
520.000000	0.038605
519.000000	0.038626
518.000000	0.038714
517.000000	0.038796
516.000000	0.038754
515.000000	0.038762
514.000000	0.038741
513.000000	0.038877
512.000000	0.038997
511.000000	0.039051
510.000000	0.039062
509.000000	0.039107
508.000000	0.039178
507.000000	0.039205
506.000000	0.039364
505.000000	0.039420
504.000000	0.039473
503.000000	0.039406
502.000000	0.039413
501.000000	0.039489
500.000000	0.039588
499.000000	0.039665
498.000000	0.039743
497.000000	0.039717
496.000000	0.039798
495.000000	0.039892
494.000000	0.039974
493.000000	0.040045
492.000000	0.040130
491.000000	0.040201
490.000000	0.040286
489.000000	0.040435
488.000000	0.040478
487.000000	0.040436
486.000000	0.040441
485.000000	0.040430
484.000000	0.040478
483.000000	0.040550
482.000000	0.040560
481.000000	0.040527
480.000000	0.040507
479.000000	0.040464
478.000000	0.040455
477.000000	0.040542
476.000000	0.040592
475.000000	0.040607
474.000000	0.040513
473.000000	0.040420
472.000000	0.040396
471.000000	0.040472
470.000000	0.040478
469.000000	0.040495
468.000000	0.040452
467.000000	0.040365
466.000000	0.040300
465.000000	0.040377
464.000000	0.040442
463.000000	0.040494
462.000000	0.040308
461.000000	0.040255
460.000000	0.040214
459.000000	0.040244
458.000000	0.040262
457.000000	0.040252
456.000000	0.040105
455.000000	0.040030
454.000000	0.040025
453.000000	0.040112
452.000000	0.040077
451.000000	0.040085
450.000000	0.039992
449.000000	0.039929
448.000000	0.039931
447.000000	0.040143
446.000000	0.040134
445.000000	0.040108
444.000000	0.039999
443.000000	0.040043
442.000000	0.040021
441.000000	0.040193
440.000000	0.040172
439.000000	0.040235
438.000000	0.040143
437.000000	0.040156
436.000000	0.040183
435.000000	0.040302
434.000000	0.040265
433.000000	0.040397
432.000000	0.040233
431.000000	0.040219
430.000000	0.040256
429.000000	0.040494
428.000000	0.040457
427.000000	0.040493
426.000000	0.040452
425.000000	0.040452
424.000000	0.040560
423.000000	0.040648
422.000000	0.040617
421.000000	0.040682
420.000000	0.040573
419.000000	0.040503
418.000000	0.040667
417.000000	0.040774
416.000000	0.040627
415.000000	0.040804
414.000000	0.040827
413.000000	0.040742
412.000000	0.040707
411.000000	0.040923
410.000000	0.040870
409.000000	0.040958
408.000000	0.040872
407.000000	0.040926
406.000000	0.040984
405.000000	0.041070
404.000000	0.041059
403.000000	0.041337
402.000000	0.041058
401.000000	0.041061
400.000000	0.041171
399.000000	0.041438
398.000000	0.041414
397.000000	0.041527
396.000000	0.041505
395.000000	0.041474
394.000000	0.041471
393.000000	0.041922
392.000000	0.041828
391.000000	0.041823
390.000000	0.041712
389.000000	0.041999
388.000000	0.041995
387.000000	0.042145
386.000000	0.042234
385.000000	0.042387
384.000000	0.042360
383.000000	0.042334
382.000000	0.042439
381.000000	0.042773
380.000000	0.042514
379.000000	0.042833
378.000000	0.042726
377.000000	0.042824
376.000000	0.042793
375.000000	0.043000
374.000000	0.043135
373.000000	0.042982
372.000000	0.043189
371.000000	0.043515
370.000000	0.043377
369.000000	0.043491
368.000000	0.043477
367.000000	0.043637
366.000000	0.043586
365.000000	0.043832
364.000000	0.043813
363.000000	0.043950
362.000000	0.043760
361.000000	0.043893
360.000000	0.044129
359.000000	0.044247
358.000000	0.044065
357.000000	0.044285
356.000000	0.044167
355.000000	0.044152
354.000000	0.044291
353.000000	0.044571
352.000000	0.044492
351.000000	0.044492
350.000000	0.044469
349.000000	0.044481
348.000000	0.044520
347.000000	0.044659
346.000000	0.044709
345.000000	0.044840
344.000000	0.044681
343.000000	0.044770
342.000000	0.044859
341.000000	0.044946
340.000000	0.044888
339.000000	0.045099
338.000000	0.045039
337.000000	0.045058
336.000000	0.045144
335.000000	0.045373
334.000000	0.045394
333.000000	0.045387
332.000000	0.045280
331.000000	0.045469
330.000000	0.045592
329.000000	0.045681
328.000000	0.045835
327.000000	0.046010
326.000000	0.045942
325.000000	0.045956
324.000000	0.046131
323.000000	0.046265
322.000000	0.046291
321.000000	0.046506
320.000000	0.046496
319.000000	0.046552
318.000000	0.047082
317.000000	0.048372
316.000000	0.048525
315.000000	0.048627
314.000000	0.048796
313.000000	0.048881
312.000000	0.048989
311.000000	0.049173
310.000000	0.049346
309.000000	0.049328
308.000000	0.049591
307.000000	0.049790
306.000000	0.049871
305.000000	0.050030
304.000000	0.050242
303.000000	0.050275
302.000000	0.050415
301.000000	0.050562
300.000000	0.050815
299.000000	0.050920
298.000000	0.051047
297.000000	0.051213
296.000000	0.051319
295.000000	0.051373
294.000000	0.051648
293.000000	0.051897
292.000000	0.051939
291.000000	0.052087
290.000000	0.052499
289.000000	0.052595
288.000000	0.052624
287.000000	0.052848
286.000000	0.053139
285.000000	0.053375
284.000000	0.053495
283.000000	0.053543
282.000000	0.053749
281.000000	0.053987
280.000000	0.054228
279.000000	0.054427
278.000000	0.054570
277.000000	0.054620
276.000000	0.054728
275.000000	0.054994
274.000000	0.055012
273.000000	0.055151
272.000000	0.055523
271.000000	0.055743
270.000000	0.055815
269.000000	0.056087
268.000000	0.056308
267.000000	0.056498
266.000000	0.056589
265.000000	0.056750
264.000000	0.057006
263.000000	0.057256
262.000000	0.057423
261.000000	0.057661
260.000000	0.057828
259.000000	0.057932
258.000000	0.058129
257.000000	0.058455
256.000000	0.058786
255.000000	0.059115
254.000000	0.059271
253.000000	0.059398
252.000000	0.059696
251.000000	0.060172
250.000000	0.060495
249.000000	0.060913
248.000000	0.061223
247.000000	0.061592
246.000000	0.062007
245.000000	0.062450
244.000000	0.062734
243.000000	0.063224
242.000000	0.063686
241.000000	0.064154
240.000000	0.064573
239.000000	0.065100
238.000000	0.065594
237.000000	0.066214
236.000000	0.066785
235.000000	0.067413
234.000000	0.067994
233.000000	0.068701
232.000000	0.069210
231.000000	0.069876
230.000000	0.070581
229.000000	0.071096
228.000000	0.071697
227.000000	0.072513
226.000000	0.073095
225.000000	0.073946
224.000000	0.074732
223.000000	0.075592
222.000000	0.076646
221.000000	0.077611
220.000000	0.078709
219.000000	0.079873
218.000000	0.081064
217.000000	0.082545
216.000000	0.084107
215.000000	0.085690
214.000000	0.087226
213.000000	0.089156
212.000000	0.091265
211.000000	0.093486
210.000000	0.095819
209.000000	0.098267
208.000000	0.100673
207.000000	0.103454
206.000000	0.106577
205.000000	0.109943
204.000000	0.113426
203.000000	0.117521
202.000000	0.121279
201.000000	0.125786
200.000000	0.130872
