PE UV       SUBTECH     SPECTRUM    ASCII       PEDS        4.00        
   -1
MQ52005.Sample.Raw.asc
11/05/20
13:51:15.00
11/05/20
13:51:15.00
Hermanni Kaartokallio

200.000000
1
Lambda 650
650N8121101
PerkinElmer UV WinLab 6.0.2.0723 / 1.61.00 Lambda 650

0
0
2
0
0
UV/VIS
1
1
1
uv/vis/nir detector
0
0
0
0
Fix
 
0
0.24
0
0
0
 
 
 
0
 
0
319.2
0
Front
100
 
 
 
0
0
0
 
0
 
 
 
0
 
 
0
0
0
0
0
 
 
 
 
0
0
#HDR
-1
-1
#GR
nm
A
1.0
0.0
800.000000
-1.000000
601
8
0.126544
0.037010
#DATA
800.000000	0.046644
799.000000	0.046618
798.000000	0.046909
797.000000	0.047005
796.000000	0.046939
795.000000	0.046989
794.000000	0.046999
793.000000	0.047241
792.000000	0.047428
791.000000	0.047424
790.000000	0.047858
789.000000	0.047722
788.000000	0.047837
787.000000	0.047854
786.000000	0.048123
785.000000	0.048075
784.000000	0.048167
783.000000	0.048106
782.000000	0.048014
781.000000	0.048033
780.000000	0.048192
779.000000	0.048121
778.000000	0.047984
777.000000	0.047688
776.000000	0.047561
775.000000	0.047629
774.000000	0.047564
773.000000	0.047551
772.000000	0.047711
771.000000	0.047395
770.000000	0.047354
769.000000	0.047457
768.000000	0.047561
767.000000	0.047363
766.000000	0.047518
765.000000	0.047558
764.000000	0.047528
763.000000	0.047596
762.000000	0.047831
761.000000	0.047831
760.000000	0.047841
759.000000	0.047722
758.000000	0.047759
757.000000	0.047876
756.000000	0.047783
755.000000	0.047791
754.000000	0.047839
753.000000	0.047819
752.000000	0.047709
751.000000	0.047814
750.000000	0.048113
749.000000	0.047931
748.000000	0.048022
747.000000	0.048026
746.000000	0.048093
745.000000	0.048077
744.000000	0.048187
743.000000	0.048178
742.000000	0.048055
741.000000	0.047916
740.000000	0.047834
739.000000	0.047749
738.000000	0.047639
737.000000	0.047403
736.000000	0.047232
735.000000	0.046722
734.000000	0.046247
733.000000	0.045887
732.000000	0.045543
731.000000	0.044956
730.000000	0.044484
729.000000	0.044080
728.000000	0.043674
727.000000	0.043268
726.000000	0.042966
725.000000	0.042765
724.000000	0.042450
723.000000	0.042092
722.000000	0.041888
721.000000	0.041732
720.000000	0.041331
719.000000	0.040923
718.000000	0.040626
717.000000	0.040331
716.000000	0.039988
715.000000	0.039809
714.000000	0.039523
713.000000	0.039004
712.000000	0.038638
711.000000	0.038499
710.000000	0.038407
709.000000	0.038354
708.000000	0.038191
707.000000	0.038037
706.000000	0.037930
705.000000	0.037694
704.000000	0.037678
703.000000	0.037711
702.000000	0.037605
701.000000	0.037522
700.000000	0.037541
699.000000	0.037601
698.000000	0.037695
697.000000	0.037684
696.000000	0.037670
695.000000	0.037624
694.000000	0.037525
693.000000	0.037608
692.000000	0.037705
691.000000	0.037726
690.000000	0.037672
689.000000	0.037652
688.000000	0.037622
687.000000	0.037597
686.000000	0.037649
685.000000	0.037589
684.000000	0.037448
683.000000	0.037405
682.000000	0.037542
681.000000	0.037474
680.000000	0.037408
679.000000	0.037426
678.000000	0.037340
677.000000	0.037346
676.000000	0.037407
675.000000	0.037393
674.000000	0.037404
673.000000	0.037432
672.000000	0.037497
671.000000	0.037636
670.000000	0.037564
669.000000	0.037668
668.000000	0.037787
667.000000	0.037878
666.000000	0.037853
665.000000	0.038008
664.000000	0.038210
663.000000	0.038199
662.000000	0.038180
661.000000	0.038296
660.000000	0.038377
659.000000	0.038542
658.000000	0.038631
657.000000	0.038633
656.000000	0.038592
655.000000	0.038575
654.000000	0.038557
653.000000	0.038750
652.000000	0.038684
651.000000	0.038473
650.000000	0.038493
649.000000	0.038574
648.000000	0.038432
647.000000	0.038528
646.000000	0.038518
645.000000	0.038290
644.000000	0.038132
643.000000	0.038081
642.000000	0.038028
641.000000	0.037958
640.000000	0.037860
639.000000	0.037720
638.000000	0.037616
637.000000	0.037549
636.000000	0.037515
635.000000	0.037571
634.000000	0.037607
633.000000	0.037598
632.000000	0.037535
631.000000	0.037643
630.000000	0.037634
629.000000	0.037789
628.000000	0.037788
627.000000	0.037688
626.000000	0.037898
625.000000	0.037950
624.000000	0.037957
623.000000	0.038112
622.000000	0.038148
621.000000	0.038104
620.000000	0.038089
619.000000	0.038168
618.000000	0.038200
617.000000	0.038399
616.000000	0.038395
615.000000	0.038461
614.000000	0.038518
613.000000	0.038443
612.000000	0.038552
611.000000	0.038708
610.000000	0.038597
609.000000	0.038637
608.000000	0.038595
607.000000	0.038681
606.000000	0.038596
605.000000	0.038851
604.000000	0.038728
603.000000	0.038661
602.000000	0.038601
601.000000	0.038703
600.000000	0.038573
599.000000	0.038736
598.000000	0.038677
597.000000	0.038608
596.000000	0.038593
595.000000	0.038635
594.000000	0.038646
593.000000	0.038842
592.000000	0.038573
591.000000	0.038622
590.000000	0.038755
589.000000	0.038715
588.000000	0.038747
587.000000	0.038780
586.000000	0.038799
585.000000	0.038726
584.000000	0.038763
583.000000	0.038838
582.000000	0.038793
581.000000	0.038889
580.000000	0.038928
579.000000	0.038824
578.000000	0.038741
577.000000	0.038820
576.000000	0.038921
575.000000	0.039124
574.000000	0.038966
573.000000	0.038818
572.000000	0.038603
571.000000	0.038725
570.000000	0.038666
569.000000	0.038729
568.000000	0.038703
567.000000	0.038515
566.000000	0.038267
565.000000	0.038295
564.000000	0.038325
563.000000	0.038255
562.000000	0.038141
561.000000	0.037993
560.000000	0.038076
559.000000	0.037959
558.000000	0.037989
557.000000	0.037723
556.000000	0.037646
555.000000	0.037686
554.000000	0.037660
553.000000	0.037512
552.000000	0.037388
551.000000	0.037270
550.000000	0.037287
549.000000	0.037184
548.000000	0.037252
547.000000	0.037247
546.000000	0.037226
545.000000	0.037018
544.000000	0.037046
543.000000	0.037107
542.000000	0.037206
541.000000	0.037152
540.000000	0.037222
539.000000	0.037099
538.000000	0.037010
537.000000	0.037161
536.000000	0.037330
535.000000	0.037282
534.000000	0.037308
533.000000	0.037268
532.000000	0.037349
531.000000	0.037388
530.000000	0.037539
529.000000	0.037608
528.000000	0.037567
527.000000	0.037453
526.000000	0.037536
525.000000	0.037669
524.000000	0.037736
523.000000	0.037701
522.000000	0.037759
521.000000	0.037732
520.000000	0.037791
519.000000	0.037908
518.000000	0.038062
517.000000	0.038017
516.000000	0.037980
515.000000	0.037999
514.000000	0.038078
513.000000	0.038079
512.000000	0.038192
511.000000	0.038340
510.000000	0.038389
509.000000	0.038161
508.000000	0.038217
507.000000	0.038425
506.000000	0.038507
505.000000	0.038505
504.000000	0.038597
503.000000	0.038560
502.000000	0.038530
501.000000	0.038654
500.000000	0.038851
499.000000	0.038889
498.000000	0.038967
497.000000	0.039108
496.000000	0.039261
495.000000	0.039349
494.000000	0.039444
493.000000	0.039536
492.000000	0.039533
491.000000	0.039430
490.000000	0.039502
489.000000	0.039720
488.000000	0.039676
487.000000	0.039536
486.000000	0.039564
485.000000	0.039578
484.000000	0.039548
483.000000	0.039597
482.000000	0.039634
481.000000	0.039569
480.000000	0.039462
479.000000	0.039435
478.000000	0.039459
477.000000	0.039554
476.000000	0.039582
475.000000	0.039605
474.000000	0.039566
473.000000	0.039501
472.000000	0.039500
471.000000	0.039649
470.000000	0.039666
469.000000	0.039618
468.000000	0.039630
467.000000	0.039595
466.000000	0.039482
465.000000	0.039497
464.000000	0.039668
463.000000	0.039747
462.000000	0.039496
461.000000	0.039483
460.000000	0.039531
459.000000	0.039496
458.000000	0.039465
457.000000	0.039565
456.000000	0.039441
455.000000	0.039271
454.000000	0.039270
453.000000	0.039435
452.000000	0.039402
451.000000	0.039349
450.000000	0.039256
449.000000	0.039231
448.000000	0.039199
447.000000	0.039354
446.000000	0.039434
445.000000	0.039361
444.000000	0.039209
443.000000	0.039232
442.000000	0.039280
441.000000	0.039401
440.000000	0.039317
439.000000	0.039352
438.000000	0.039346
437.000000	0.039267
436.000000	0.039278
435.000000	0.039523
434.000000	0.039395
433.000000	0.039402
432.000000	0.039380
431.000000	0.039391
430.000000	0.039348
429.000000	0.039542
428.000000	0.039610
427.000000	0.039634
426.000000	0.039474
425.000000	0.039463
424.000000	0.039641
423.000000	0.039730
422.000000	0.039665
421.000000	0.039757
420.000000	0.039658
419.000000	0.039603
418.000000	0.039709
417.000000	0.039886
416.000000	0.039828
415.000000	0.039774
414.000000	0.039845
413.000000	0.039880
412.000000	0.039896
411.000000	0.039940
410.000000	0.039966
409.000000	0.040022
408.000000	0.039894
407.000000	0.039866
406.000000	0.039941
405.000000	0.040210
404.000000	0.040067
403.000000	0.040302
402.000000	0.040189
401.000000	0.040130
400.000000	0.040105
399.000000	0.040399
398.000000	0.040408
397.000000	0.040510
396.000000	0.040411
395.000000	0.040513
394.000000	0.040540
393.000000	0.040886
392.000000	0.040710
391.000000	0.040929
390.000000	0.040805
389.000000	0.040955
388.000000	0.040920
387.000000	0.041183
386.000000	0.041143
385.000000	0.041290
384.000000	0.041329
383.000000	0.041442
382.000000	0.041468
381.000000	0.041672
380.000000	0.041655
379.000000	0.041794
378.000000	0.041650
377.000000	0.041759
376.000000	0.041816
375.000000	0.041916
374.000000	0.042010
373.000000	0.041998
372.000000	0.042075
371.000000	0.042402
370.000000	0.042355
369.000000	0.042461
368.000000	0.042320
367.000000	0.042414
366.000000	0.042518
365.000000	0.042762
364.000000	0.042655
363.000000	0.042725
362.000000	0.042704
361.000000	0.042873
360.000000	0.042939
359.000000	0.043117
358.000000	0.043051
357.000000	0.043203
356.000000	0.042937
355.000000	0.043060
354.000000	0.043225
353.000000	0.043432
352.000000	0.043352
351.000000	0.043371
350.000000	0.043313
349.000000	0.043267
348.000000	0.043331
347.000000	0.043569
346.000000	0.043577
345.000000	0.043563
344.000000	0.043537
343.000000	0.043624
342.000000	0.043596
341.000000	0.043712
340.000000	0.043801
339.000000	0.043932
338.000000	0.043727
337.000000	0.043815
336.000000	0.043966
335.000000	0.044064
334.000000	0.044043
333.000000	0.044148
332.000000	0.044108
331.000000	0.044236
330.000000	0.044286
329.000000	0.044514
328.000000	0.044511
327.000000	0.044673
326.000000	0.044525
325.000000	0.044646
324.000000	0.044829
323.000000	0.045052
322.000000	0.045134
321.000000	0.045328
320.000000	0.045301
319.000000	0.045370
318.000000	0.045937
317.000000	0.046908
316.000000	0.047106
315.000000	0.047317
314.000000	0.047418
313.000000	0.047420
312.000000	0.047609
311.000000	0.047699
310.000000	0.047828
309.000000	0.047915
308.000000	0.048217
307.000000	0.048281
306.000000	0.048321
305.000000	0.048556
304.000000	0.048751
303.000000	0.048688
302.000000	0.048840
301.000000	0.049077
300.000000	0.049167
299.000000	0.049270
298.000000	0.049525
297.000000	0.049652
296.000000	0.049667
295.000000	0.049713
294.000000	0.050050
293.000000	0.050284
292.000000	0.050348
291.000000	0.050594
290.000000	0.050906
289.000000	0.050868
288.000000	0.050970
287.000000	0.051309
286.000000	0.051568
285.000000	0.051672
284.000000	0.051805
283.000000	0.051952
282.000000	0.052090
281.000000	0.052270
280.000000	0.052507
279.000000	0.052694
278.000000	0.052846
277.000000	0.052913
276.000000	0.053053
275.000000	0.053284
274.000000	0.053397
273.000000	0.053568
272.000000	0.053791
271.000000	0.053874
270.000000	0.053965
269.000000	0.054310
268.000000	0.054551
267.000000	0.054632
266.000000	0.054682
265.000000	0.054910
264.000000	0.055090
263.000000	0.055254
262.000000	0.055528
261.000000	0.055792
260.000000	0.055885
259.000000	0.055988
258.000000	0.056289
257.000000	0.056611
256.000000	0.056797
255.000000	0.057074
254.000000	0.057322
253.000000	0.057505
252.000000	0.057631
251.000000	0.058112
250.000000	0.058511
249.000000	0.058766
248.000000	0.059089
247.000000	0.059493
246.000000	0.059786
245.000000	0.060299
244.000000	0.060708
243.000000	0.061284
242.000000	0.061555
241.000000	0.061796
240.000000	0.062389
239.000000	0.063045
238.000000	0.063517
237.000000	0.064031
236.000000	0.064590
235.000000	0.065140
234.000000	0.065571
233.000000	0.066405
232.000000	0.067137
231.000000	0.067629
230.000000	0.068091
229.000000	0.068675
228.000000	0.069309
227.000000	0.070099
226.000000	0.070768
225.000000	0.071548
224.000000	0.072077
223.000000	0.072855
222.000000	0.073826
221.000000	0.074999
220.000000	0.075971
219.000000	0.076969
218.000000	0.078012
217.000000	0.079372
216.000000	0.080733
215.000000	0.082420
214.000000	0.084053
213.000000	0.085899
212.000000	0.087703
211.000000	0.089778
210.000000	0.092209
209.000000	0.094565
208.000000	0.097060
207.000000	0.099635
206.000000	0.102607
205.000000	0.105834
204.000000	0.109384
203.000000	0.113383
202.000000	0.117337
201.000000	0.121580
200.000000	0.126544
