PE UV       SUBTECH     SPECTRUM    ASCII       PEDS        4.00        
   -1
MQ62005.Sample.Raw.asc
11/05/20
14:28:55.00
11/05/20
14:28:55.00
Hermanni Kaartokallio

200.000000
1
Lambda 650
650N8121101
PerkinElmer UV WinLab 6.0.2.0723 / 1.61.00 Lambda 650

0
0
2
0
0
UV/VIS
1
1
1
uv/vis/nir detector
0
0
0
0
Fix
 
0
0.24
0
0
0
 
 
 
0
 
0
319.2
0
Front
100
 
 
 
0
0
0
 
0
 
 
 
0
 
 
0
0
0
0
0
 
 
 
 
0
0
#HDR
-1
-1
#GR
nm
A
1.0
0.0
800.000000
-1.000000
601
8
0.133450
0.037915
#DATA
800.000000	0.047571
799.000000	0.047577
798.000000	0.047762
797.000000	0.047648
796.000000	0.047798
795.000000	0.047874
794.000000	0.047822
793.000000	0.048136
792.000000	0.048506
791.000000	0.048338
790.000000	0.048519
789.000000	0.048658
788.000000	0.048736
787.000000	0.048749
786.000000	0.048957
785.000000	0.048890
784.000000	0.048918
783.000000	0.048875
782.000000	0.048841
781.000000	0.048976
780.000000	0.049056
779.000000	0.048897
778.000000	0.048755
777.000000	0.048626
776.000000	0.048490
775.000000	0.048549
774.000000	0.048562
773.000000	0.048368
772.000000	0.048322
771.000000	0.048287
770.000000	0.048381
769.000000	0.048396
768.000000	0.048530
767.000000	0.048246
766.000000	0.048311
765.000000	0.048532
764.000000	0.048458
763.000000	0.048608
762.000000	0.048849
761.000000	0.048639
760.000000	0.048628
759.000000	0.048660
758.000000	0.048744
757.000000	0.048835
756.000000	0.048965
755.000000	0.048833
754.000000	0.048769
753.000000	0.048835
752.000000	0.048778
751.000000	0.048851
750.000000	0.049084
749.000000	0.048937
748.000000	0.048944
747.000000	0.048927
746.000000	0.048893
745.000000	0.048981
744.000000	0.049097
743.000000	0.048989
742.000000	0.048925
741.000000	0.048886
740.000000	0.048786
739.000000	0.048769
738.000000	0.048585
737.000000	0.048286
736.000000	0.047972
735.000000	0.047595
734.000000	0.047231
733.000000	0.046839
732.000000	0.046391
731.000000	0.045755
730.000000	0.045360
729.000000	0.045043
728.000000	0.044540
727.000000	0.044189
726.000000	0.044049
725.000000	0.043631
724.000000	0.043206
723.000000	0.042907
722.000000	0.042655
721.000000	0.042447
720.000000	0.042171
719.000000	0.041767
718.000000	0.041423
717.000000	0.041058
716.000000	0.040665
715.000000	0.040535
714.000000	0.040308
713.000000	0.039758
712.000000	0.039473
711.000000	0.039254
710.000000	0.038960
709.000000	0.038812
708.000000	0.038716
707.000000	0.038525
706.000000	0.038435
705.000000	0.038341
704.000000	0.038394
703.000000	0.038460
702.000000	0.038464
701.000000	0.038412
700.000000	0.038395
699.000000	0.038398
698.000000	0.038474
697.000000	0.038577
696.000000	0.038604
695.000000	0.038486
694.000000	0.038409
693.000000	0.038530
692.000000	0.038564
691.000000	0.038619
690.000000	0.038637
689.000000	0.038553
688.000000	0.038580
687.000000	0.038580
686.000000	0.038493
685.000000	0.038416
684.000000	0.038357
683.000000	0.038388
682.000000	0.038480
681.000000	0.038275
680.000000	0.038257
679.000000	0.038364
678.000000	0.038266
677.000000	0.038187
676.000000	0.038366
675.000000	0.038386
674.000000	0.038305
673.000000	0.038383
672.000000	0.038435
671.000000	0.038414
670.000000	0.038550
669.000000	0.038672
668.000000	0.038807
667.000000	0.038809
666.000000	0.038805
665.000000	0.038888
664.000000	0.039060
663.000000	0.039010
662.000000	0.039003
661.000000	0.039190
660.000000	0.039232
659.000000	0.039206
658.000000	0.039454
657.000000	0.039480
656.000000	0.039333
655.000000	0.039393
654.000000	0.039468
653.000000	0.039479
652.000000	0.039491
651.000000	0.039477
650.000000	0.039505
649.000000	0.039433
648.000000	0.039281
647.000000	0.039279
646.000000	0.039347
645.000000	0.039077
644.000000	0.038958
643.000000	0.038878
642.000000	0.038797
641.000000	0.038585
640.000000	0.038743
639.000000	0.038600
638.000000	0.038415
637.000000	0.038318
636.000000	0.038364
635.000000	0.038257
634.000000	0.038349
633.000000	0.038230
632.000000	0.038370
631.000000	0.038411
630.000000	0.038422
629.000000	0.038530
628.000000	0.038694
627.000000	0.038594
626.000000	0.038580
625.000000	0.038799
624.000000	0.038836
623.000000	0.038806
622.000000	0.039077
621.000000	0.039140
620.000000	0.039181
619.000000	0.039109
618.000000	0.039249
617.000000	0.039253
616.000000	0.039447
615.000000	0.039427
614.000000	0.039499
613.000000	0.039421
612.000000	0.039473
611.000000	0.039500
610.000000	0.039822
609.000000	0.039607
608.000000	0.039542
607.000000	0.039712
606.000000	0.039606
605.000000	0.039654
604.000000	0.039876
603.000000	0.039746
602.000000	0.039645
601.000000	0.039733
600.000000	0.039677
599.000000	0.039824
598.000000	0.039745
597.000000	0.039634
596.000000	0.039648
595.000000	0.039688
594.000000	0.039632
593.000000	0.039829
592.000000	0.039619
591.000000	0.039601
590.000000	0.039565
589.000000	0.039694
588.000000	0.039672
587.000000	0.039846
586.000000	0.039790
585.000000	0.039686
584.000000	0.039687
583.000000	0.039685
582.000000	0.039939
581.000000	0.039922
580.000000	0.039907
579.000000	0.039628
578.000000	0.039750
577.000000	0.039731
576.000000	0.039774
575.000000	0.040010
574.000000	0.039848
573.000000	0.039603
572.000000	0.039475
571.000000	0.039642
570.000000	0.039664
569.000000	0.039707
568.000000	0.039531
567.000000	0.039357
566.000000	0.039289
565.000000	0.039222
564.000000	0.039201
563.000000	0.039267
562.000000	0.039115
561.000000	0.038963
560.000000	0.039106
559.000000	0.038730
558.000000	0.038826
557.000000	0.038699
556.000000	0.038607
555.000000	0.038575
554.000000	0.038557
553.000000	0.038259
552.000000	0.038330
551.000000	0.038225
550.000000	0.038160
549.000000	0.038180
548.000000	0.038227
547.000000	0.038138
546.000000	0.038085
545.000000	0.038022
544.000000	0.037932
543.000000	0.037915
542.000000	0.038079
541.000000	0.038097
540.000000	0.038057
539.000000	0.038013
538.000000	0.038029
537.000000	0.038184
536.000000	0.038323
535.000000	0.038197
534.000000	0.038259
533.000000	0.038399
532.000000	0.038401
531.000000	0.038397
530.000000	0.038563
529.000000	0.038511
528.000000	0.038513
527.000000	0.038516
526.000000	0.038534
525.000000	0.038589
524.000000	0.038651
523.000000	0.038739
522.000000	0.038709
521.000000	0.038756
520.000000	0.038859
519.000000	0.038979
518.000000	0.039070
517.000000	0.039004
516.000000	0.039028
515.000000	0.039158
514.000000	0.039156
513.000000	0.039126
512.000000	0.039250
511.000000	0.039308
510.000000	0.039328
509.000000	0.039328
508.000000	0.039419
507.000000	0.039581
506.000000	0.039641
505.000000	0.039639
504.000000	0.039709
503.000000	0.039699
502.000000	0.039690
501.000000	0.039865
500.000000	0.040009
499.000000	0.039969
498.000000	0.040031
497.000000	0.040152
496.000000	0.040203
495.000000	0.040319
494.000000	0.040448
493.000000	0.040421
492.000000	0.040382
491.000000	0.040440
490.000000	0.040535
489.000000	0.040660
488.000000	0.040676
487.000000	0.040615
486.000000	0.040689
485.000000	0.040800
484.000000	0.040816
483.000000	0.040714
482.000000	0.040632
481.000000	0.040545
480.000000	0.040572
479.000000	0.040723
478.000000	0.040797
477.000000	0.040721
476.000000	0.040661
475.000000	0.040709
474.000000	0.040769
473.000000	0.040704
472.000000	0.040771
471.000000	0.040740
470.000000	0.040581
469.000000	0.040735
468.000000	0.040740
467.000000	0.040697
466.000000	0.040699
465.000000	0.040626
464.000000	0.040653
463.000000	0.040717
462.000000	0.040710
461.000000	0.040766
460.000000	0.040657
459.000000	0.040468
458.000000	0.040432
457.000000	0.040560
456.000000	0.040594
455.000000	0.040576
454.000000	0.040481
453.000000	0.040410
452.000000	0.040256
451.000000	0.040224
450.000000	0.040448
449.000000	0.040568
448.000000	0.040336
447.000000	0.040356
446.000000	0.040374
445.000000	0.040355
444.000000	0.040473
443.000000	0.040531
442.000000	0.040468
441.000000	0.040411
440.000000	0.040345
439.000000	0.040477
438.000000	0.040675
437.000000	0.040484
436.000000	0.040595
435.000000	0.040655
434.000000	0.040475
433.000000	0.040543
432.000000	0.040802
431.000000	0.040803
430.000000	0.040637
429.000000	0.040612
428.000000	0.040602
427.000000	0.040733
426.000000	0.040885
425.000000	0.040950
424.000000	0.040918
423.000000	0.040819
422.000000	0.040882
421.000000	0.040994
420.000000	0.041104
419.000000	0.041033
418.000000	0.041033
417.000000	0.041031
416.000000	0.041053
415.000000	0.041102
414.000000	0.041291
413.000000	0.041172
412.000000	0.041149
411.000000	0.041112
410.000000	0.041213
409.000000	0.041455
408.000000	0.041472
407.000000	0.041342
406.000000	0.041423
405.000000	0.041256
404.000000	0.041242
403.000000	0.041721
402.000000	0.041583
401.000000	0.041503
400.000000	0.041518
399.000000	0.041697
398.000000	0.041655
397.000000	0.041981
396.000000	0.042093
395.000000	0.041990
394.000000	0.041973
393.000000	0.042000
392.000000	0.041954
391.000000	0.042404
390.000000	0.042289
389.000000	0.042292
388.000000	0.042452
387.000000	0.042345
386.000000	0.042437
385.000000	0.042814
384.000000	0.042826
383.000000	0.042831
382.000000	0.042766
381.000000	0.042944
380.000000	0.042924
379.000000	0.043269
378.000000	0.043072
377.000000	0.043244
376.000000	0.043092
375.000000	0.043224
374.000000	0.043557
373.000000	0.043582
372.000000	0.043635
371.000000	0.043924
370.000000	0.043741
369.000000	0.043905
368.000000	0.043952
367.000000	0.044098
366.000000	0.044087
365.000000	0.044317
364.000000	0.044105
363.000000	0.044365
362.000000	0.044303
361.000000	0.044408
360.000000	0.044642
359.000000	0.044886
358.000000	0.044699
357.000000	0.044675
356.000000	0.044688
355.000000	0.044825
354.000000	0.044950
353.000000	0.045172
352.000000	0.045065
351.000000	0.045128
350.000000	0.045271
349.000000	0.045258
348.000000	0.045165
347.000000	0.045261
346.000000	0.045270
345.000000	0.045361
344.000000	0.045359
343.000000	0.045374
342.000000	0.045509
341.000000	0.045633
340.000000	0.045495
339.000000	0.045628
338.000000	0.045610
337.000000	0.045730
336.000000	0.045817
335.000000	0.045823
334.000000	0.045926
333.000000	0.046083
332.000000	0.046026
331.000000	0.046207
330.000000	0.046337
329.000000	0.046387
328.000000	0.046465
327.000000	0.046582
326.000000	0.046646
325.000000	0.046693
324.000000	0.046871
323.000000	0.046995
322.000000	0.047087
321.000000	0.047236
320.000000	0.047248
319.000000	0.047485
318.000000	0.048087
317.000000	0.049187
316.000000	0.049331
315.000000	0.049386
314.000000	0.049550
313.000000	0.049606
312.000000	0.049869
311.000000	0.049941
310.000000	0.050079
309.000000	0.050273
308.000000	0.050496
307.000000	0.050604
306.000000	0.050664
305.000000	0.050862
304.000000	0.051022
303.000000	0.050949
302.000000	0.051169
301.000000	0.051444
300.000000	0.051598
299.000000	0.051739
298.000000	0.051967
297.000000	0.052054
296.000000	0.052167
295.000000	0.052279
294.000000	0.052546
293.000000	0.052817
292.000000	0.052909
291.000000	0.053025
290.000000	0.053390
289.000000	0.053518
288.000000	0.053600
287.000000	0.053908
286.000000	0.054093
285.000000	0.054123
284.000000	0.054388
283.000000	0.054608
282.000000	0.054703
281.000000	0.054948
280.000000	0.055207
279.000000	0.055335
278.000000	0.055515
277.000000	0.055729
276.000000	0.055869
275.000000	0.056074
274.000000	0.056214
273.000000	0.056402
272.000000	0.056719
271.000000	0.056871
270.000000	0.057002
269.000000	0.057405
268.000000	0.057534
267.000000	0.057589
266.000000	0.057755
265.000000	0.058010
264.000000	0.058197
263.000000	0.058514
262.000000	0.058780
261.000000	0.058909
260.000000	0.059080
259.000000	0.059306
258.000000	0.059616
257.000000	0.059884
256.000000	0.060095
255.000000	0.060377
254.000000	0.060766
253.000000	0.060944
252.000000	0.061220
251.000000	0.061799
250.000000	0.061939
249.000000	0.062254
248.000000	0.062766
247.000000	0.063219
246.000000	0.063666
245.000000	0.064071
244.000000	0.064605
243.000000	0.065139
242.000000	0.065372
241.000000	0.065758
240.000000	0.066300
239.000000	0.066964
238.000000	0.067457
237.000000	0.068042
236.000000	0.068726
235.000000	0.069229
234.000000	0.069721
233.000000	0.070635
232.000000	0.071192
231.000000	0.071727
230.000000	0.072374
229.000000	0.073208
228.000000	0.073738
227.000000	0.074449
226.000000	0.075122
225.000000	0.075936
224.000000	0.076709
223.000000	0.077638
222.000000	0.078650
221.000000	0.079878
220.000000	0.080755
219.000000	0.082047
218.000000	0.083239
217.000000	0.084710
216.000000	0.086224
215.000000	0.088122
214.000000	0.089804
213.000000	0.091577
212.000000	0.093679
211.000000	0.095967
210.000000	0.098216
209.000000	0.100800
208.000000	0.103323
207.000000	0.106056
206.000000	0.109218
205.000000	0.112543
204.000000	0.116096
203.000000	0.120109
202.000000	0.123980
201.000000	0.128253
200.000000	0.133450
