PE UV       SUBTECH     SPECTRUM    ASCII       PEDS        4.00        
   -1
KY4-04B.Sample.Raw.asc
11/05/10
13:21:55.00
11/05/10
13:21:55.00
Hermanni Kaartokallio

200.000000
1
Lambda 650
650N8121101
PerkinElmer UV WinLab 6.0.2.0723 / 1.61.00 Lambda 650

0
0
2
0
0
UV/VIS
1
1
1
uv/vis/nir detector
0
0
0
0
Fix
 
0
0.24
0
0
0
 
 
 
0
 
0
319.2
0
Front
100
 
 
 
0
0
0
 
0
 
 
 
0
 
 
0
0
0
0
0
 
 
 
 
0
0
#HDR
-1
-1
#GR
nm
A
1.0
0.0
800.000000
-1.000000
601
8
2.021147
0.033321
#DATA
800.000000	0.041928
799.000000	0.041990
798.000000	0.041964
797.000000	0.042076
796.000000	0.042183
795.000000	0.042475
794.000000	0.042768
793.000000	0.042973
792.000000	0.043130
791.000000	0.043519
790.000000	0.043760
789.000000	0.044020
788.000000	0.044344
787.000000	0.044566
786.000000	0.044804
785.000000	0.044953
784.000000	0.045366
783.000000	0.045416
782.000000	0.045496
781.000000	0.045459
780.000000	0.045626
779.000000	0.045677
778.000000	0.045599
777.000000	0.045670
776.000000	0.045677
775.000000	0.045598
774.000000	0.045450
773.000000	0.045473
772.000000	0.045463
771.000000	0.045257
770.000000	0.045239
769.000000	0.045326
768.000000	0.045226
767.000000	0.045042
766.000000	0.045071
765.000000	0.045119
764.000000	0.045178
763.000000	0.045120
762.000000	0.045148
761.000000	0.045106
760.000000	0.045256
759.000000	0.045178
758.000000	0.045269
757.000000	0.045223
756.000000	0.045000
755.000000	0.044927
754.000000	0.044958
753.000000	0.044724
752.000000	0.044647
751.000000	0.044604
750.000000	0.044538
749.000000	0.044358
748.000000	0.044451
747.000000	0.044364
746.000000	0.044153
745.000000	0.044114
744.000000	0.044113
743.000000	0.044001
742.000000	0.043970
741.000000	0.043906
740.000000	0.043840
739.000000	0.043670
738.000000	0.043373
737.000000	0.043203
736.000000	0.043036
735.000000	0.042687
734.000000	0.042298
733.000000	0.042006
732.000000	0.041632
731.000000	0.041226
730.000000	0.040950
729.000000	0.040740
728.000000	0.040439
727.000000	0.040095
726.000000	0.039900
725.000000	0.039827
724.000000	0.039603
723.000000	0.039461
722.000000	0.039364
721.000000	0.039197
720.000000	0.038941
719.000000	0.038788
718.000000	0.038618
717.000000	0.038319
716.000000	0.038043
715.000000	0.037780
714.000000	0.037495
713.000000	0.037223
712.000000	0.036976
711.000000	0.036692
710.000000	0.036429
709.000000	0.036197
708.000000	0.036005
707.000000	0.035899
706.000000	0.035730
705.000000	0.035528
704.000000	0.035447
703.000000	0.035342
702.000000	0.035183
701.000000	0.035184
700.000000	0.035228
699.000000	0.035143
698.000000	0.035090
697.000000	0.035179
696.000000	0.035200
695.000000	0.035136
694.000000	0.035109
693.000000	0.035156
692.000000	0.035082
691.000000	0.034954
690.000000	0.034930
689.000000	0.034867
688.000000	0.034777
687.000000	0.034718
686.000000	0.034647
685.000000	0.034513
684.000000	0.034397
683.000000	0.034387
682.000000	0.034286
681.000000	0.034156
680.000000	0.034075
679.000000	0.033964
678.000000	0.033782
677.000000	0.033647
676.000000	0.033609
675.000000	0.033505
674.000000	0.033414
673.000000	0.033383
672.000000	0.033349
671.000000	0.033344
670.000000	0.033321
669.000000	0.033382
668.000000	0.033460
667.000000	0.033463
666.000000	0.033496
665.000000	0.033562
664.000000	0.033624
663.000000	0.033688
662.000000	0.033867
661.000000	0.033998
660.000000	0.034115
659.000000	0.034202
658.000000	0.034324
657.000000	0.034444
656.000000	0.034601
655.000000	0.034649
654.000000	0.034781
653.000000	0.034960
652.000000	0.035045
651.000000	0.035120
650.000000	0.035209
649.000000	0.035224
648.000000	0.035255
647.000000	0.035399
646.000000	0.035351
645.000000	0.035246
644.000000	0.035229
643.000000	0.035349
642.000000	0.035292
641.000000	0.035141
640.000000	0.035155
639.000000	0.035142
638.000000	0.035046
637.000000	0.034975
636.000000	0.034982
635.000000	0.035034
634.000000	0.034876
633.000000	0.034825
632.000000	0.034898
631.000000	0.034786
630.000000	0.034831
629.000000	0.034964
628.000000	0.034925
627.000000	0.034916
626.000000	0.034853
625.000000	0.034976
624.000000	0.034997
623.000000	0.035054
622.000000	0.035033
621.000000	0.035131
620.000000	0.035168
619.000000	0.035067
618.000000	0.035110
617.000000	0.035244
616.000000	0.035098
615.000000	0.035165
614.000000	0.035299
613.000000	0.035337
612.000000	0.035194
611.000000	0.035271
610.000000	0.035384
609.000000	0.035346
608.000000	0.035389
607.000000	0.035464
606.000000	0.035497
605.000000	0.035444
604.000000	0.035311
603.000000	0.035586
602.000000	0.035513
601.000000	0.035407
600.000000	0.035413
599.000000	0.035364
598.000000	0.035224
597.000000	0.035387
596.000000	0.035439
595.000000	0.035555
594.000000	0.035367
593.000000	0.035394
592.000000	0.035569
591.000000	0.035588
590.000000	0.035654
589.000000	0.035585
588.000000	0.035772
587.000000	0.035694
586.000000	0.035641
585.000000	0.035894
584.000000	0.035998
583.000000	0.035901
582.000000	0.035988
581.000000	0.036125
580.000000	0.036049
579.000000	0.036258
578.000000	0.036362
577.000000	0.036352
576.000000	0.036316
575.000000	0.036363
574.000000	0.036446
573.000000	0.036555
572.000000	0.036624
571.000000	0.036614
570.000000	0.036638
569.000000	0.036623
568.000000	0.036565
567.000000	0.036672
566.000000	0.036764
565.000000	0.036633
564.000000	0.036591
563.000000	0.036580
562.000000	0.036442
561.000000	0.036491
560.000000	0.036525
559.000000	0.036392
558.000000	0.036346
557.000000	0.036329
556.000000	0.036300
555.000000	0.036254
554.000000	0.036168
553.000000	0.036146
552.000000	0.036092
551.000000	0.036022
550.000000	0.035962
549.000000	0.035933
548.000000	0.035854
547.000000	0.035779
546.000000	0.035845
545.000000	0.035823
544.000000	0.035693
543.000000	0.035626
542.000000	0.035679
541.000000	0.035740
540.000000	0.035653
539.000000	0.035671
538.000000	0.035668
537.000000	0.035606
536.000000	0.035629
535.000000	0.035750
534.000000	0.035828
533.000000	0.035754
532.000000	0.035777
531.000000	0.035873
530.000000	0.035844
529.000000	0.035823
528.000000	0.035977
527.000000	0.036065
526.000000	0.036043
525.000000	0.035984
524.000000	0.036080
523.000000	0.036187
522.000000	0.036142
521.000000	0.036231
520.000000	0.036305
519.000000	0.036283
518.000000	0.036304
517.000000	0.036417
516.000000	0.036446
515.000000	0.036443
514.000000	0.036488
513.000000	0.036526
512.000000	0.036551
511.000000	0.036583
510.000000	0.036623
509.000000	0.036706
508.000000	0.036699
507.000000	0.036680
506.000000	0.036793
505.000000	0.036907
504.000000	0.036954
503.000000	0.037027
502.000000	0.037138
501.000000	0.037167
500.000000	0.037154
499.000000	0.037248
498.000000	0.037443
497.000000	0.037472
496.000000	0.037578
495.000000	0.037789
494.000000	0.037901
493.000000	0.037946
492.000000	0.038121
491.000000	0.038283
490.000000	0.038346
489.000000	0.038452
488.000000	0.038595
487.000000	0.038781
486.000000	0.038848
485.000000	0.038867
484.000000	0.039011
483.000000	0.038982
482.000000	0.038981
481.000000	0.039096
480.000000	0.039125
479.000000	0.039122
478.000000	0.039213
477.000000	0.039340
476.000000	0.039370
475.000000	0.039402
474.000000	0.039510
473.000000	0.039644
472.000000	0.039664
471.000000	0.039763
470.000000	0.039907
469.000000	0.040029
468.000000	0.040005
467.000000	0.040095
466.000000	0.040256
465.000000	0.040301
464.000000	0.040328
463.000000	0.040457
462.000000	0.040569
461.000000	0.040607
460.000000	0.040802
459.000000	0.040894
458.000000	0.040996
457.000000	0.041089
456.000000	0.041190
455.000000	0.041344
454.000000	0.041331
453.000000	0.041310
452.000000	0.041418
451.000000	0.041520
450.000000	0.041576
449.000000	0.041623
448.000000	0.041743
447.000000	0.041804
446.000000	0.041801
445.000000	0.041944
444.000000	0.042095
443.000000	0.042079
442.000000	0.042082
441.000000	0.042224
440.000000	0.042311
439.000000	0.042329
438.000000	0.042401
437.000000	0.042572
436.000000	0.042565
435.000000	0.042567
434.000000	0.042715
433.000000	0.042836
432.000000	0.042844
431.000000	0.042912
430.000000	0.043099
429.000000	0.043125
428.000000	0.043186
427.000000	0.043367
426.000000	0.043512
425.000000	0.043583
424.000000	0.043584
423.000000	0.043857
422.000000	0.043919
421.000000	0.044075
420.000000	0.044281
419.000000	0.044457
418.000000	0.044618
417.000000	0.044688
416.000000	0.044842
415.000000	0.045147
414.000000	0.045156
413.000000	0.045259
412.000000	0.045579
411.000000	0.045723
410.000000	0.045770
409.000000	0.046011
408.000000	0.046278
407.000000	0.046442
406.000000	0.046596
405.000000	0.046702
404.000000	0.047052
403.000000	0.047159
402.000000	0.047460
401.000000	0.047719
400.000000	0.047940
399.000000	0.048107
398.000000	0.048290
397.000000	0.048585
396.000000	0.048777
395.000000	0.048949
394.000000	0.049426
393.000000	0.049557
392.000000	0.049830
391.000000	0.050126
390.000000	0.050404
389.000000	0.050768
388.000000	0.051077
387.000000	0.051407
386.000000	0.051784
385.000000	0.052062
384.000000	0.052397
383.000000	0.052784
382.000000	0.053165
381.000000	0.053404
380.000000	0.053780
379.000000	0.054145
378.000000	0.054485
377.000000	0.054773
376.000000	0.055155
375.000000	0.055592
374.000000	0.056072
373.000000	0.056509
372.000000	0.056941
371.000000	0.057244
370.000000	0.057692
369.000000	0.058141
368.000000	0.058671
367.000000	0.059080
366.000000	0.059544
365.000000	0.060068
364.000000	0.060617
363.000000	0.060973
362.000000	0.061440
361.000000	0.061951
360.000000	0.062363
359.000000	0.062821
358.000000	0.063387
357.000000	0.063991
356.000000	0.064467
355.000000	0.064989
354.000000	0.065487
353.000000	0.065903
352.000000	0.066402
351.000000	0.067108
350.000000	0.067693
349.000000	0.068036
348.000000	0.068559
347.000000	0.069293
346.000000	0.069910
345.000000	0.070436
344.000000	0.070847
343.000000	0.071450
342.000000	0.072067
341.000000	0.072664
340.000000	0.073139
339.000000	0.073874
338.000000	0.074459
337.000000	0.075071
336.000000	0.075757
335.000000	0.076337
334.000000	0.076968
333.000000	0.077664
332.000000	0.078314
331.000000	0.079052
330.000000	0.079681
329.000000	0.080475
328.000000	0.081274
327.000000	0.082005
326.000000	0.082767
325.000000	0.083495
324.000000	0.084219
323.000000	0.084930
322.000000	0.085714
321.000000	0.086626
320.000000	0.087434
319.000000	0.088177
318.000000	0.089664
317.000000	0.091639
316.000000	0.092523
315.000000	0.093532
314.000000	0.094519
313.000000	0.095553
312.000000	0.096617
311.000000	0.097595
310.000000	0.098669
309.000000	0.099848
308.000000	0.100903
307.000000	0.101948
306.000000	0.103116
305.000000	0.104366
304.000000	0.105492
303.000000	0.106636
302.000000	0.107874
301.000000	0.109217
300.000000	0.110564
299.000000	0.111816
298.000000	0.113197
297.000000	0.114613
296.000000	0.116083
295.000000	0.117474
294.000000	0.118984
293.000000	0.120580
292.000000	0.122079
291.000000	0.123784
290.000000	0.125474
289.000000	0.127046
288.000000	0.128700
287.000000	0.130359
286.000000	0.132111
285.000000	0.133840
284.000000	0.135482
283.000000	0.137287
282.000000	0.139077
281.000000	0.140743
280.000000	0.142499
279.000000	0.144411
278.000000	0.146175
277.000000	0.147813
276.000000	0.149605
275.000000	0.151417
274.000000	0.153198
273.000000	0.155050
272.000000	0.156916
271.000000	0.158702
270.000000	0.160569
269.000000	0.162377
268.000000	0.164114
267.000000	0.165898
266.000000	0.167624
265.000000	0.169334
264.000000	0.170967
263.000000	0.172583
262.000000	0.174217
261.000000	0.175750
260.000000	0.177236
259.000000	0.178744
258.000000	0.180136
257.000000	0.181524
256.000000	0.182942
255.000000	0.184257
254.000000	0.185670
253.000000	0.187187
252.000000	0.188657
251.000000	0.190027
250.000000	0.191504
249.000000	0.193091
248.000000	0.194810
247.000000	0.196544
246.000000	0.198378
245.000000	0.200336
244.000000	0.202593
243.000000	0.204992
242.000000	0.207401
241.000000	0.210045
240.000000	0.213087
239.000000	0.216043
238.000000	0.219325
237.000000	0.222802
236.000000	0.226634
235.000000	0.230736
234.000000	0.235264
233.000000	0.239997
232.000000	0.245100
231.000000	0.250586
230.000000	0.256634
229.000000	0.263083
228.000000	0.270000
227.000000	0.277492
226.000000	0.285572
225.000000	0.294629
224.000000	0.304198
223.000000	0.314593
222.000000	0.326305
221.000000	0.339012
220.000000	0.352943
219.000000	0.368517
218.000000	0.385558
217.000000	0.404324
216.000000	0.425854
215.000000	0.450500
214.000000	0.478335
213.000000	0.510373
212.000000	0.546763
211.000000	0.588444
210.000000	0.636271
209.000000	0.690475
208.000000	0.752968
207.000000	0.825486
206.000000	0.910722
205.000000	1.010975
204.000000	1.131986
203.000000	1.281036
202.000000	1.468635
201.000000	1.708472
200.000000	2.021147
