PE UV       SUBTECH     SPECTRUM    ASCII       PEDS        4.00        
   -1
KY4-01A.Sample.Raw.asc
11/05/10
12:41:55.00
11/05/10
12:41:55.00
Hermanni Kaartokallio

200.000000
1
Lambda 650
650N8121101
PerkinElmer UV WinLab 6.0.2.0723 / 1.61.00 Lambda 650

0
0
2
0
0
UV/VIS
1
1
1
uv/vis/nir detector
0
0
0
0
Fix
 
0
0.24
0
0
0
 
 
 
0
 
0
319.2
0
Front
100
 
 
 
0
0
0
 
0
 
 
 
0
 
 
0
0
0
0
0
 
 
 
 
0
0
#HDR
-1
-1
#GR
nm
A
1.0
0.0
800.000000
-1.000000
601
8
2.469728
0.035183
#DATA
800.000000	0.042968
799.000000	0.042944
798.000000	0.042947
797.000000	0.043035
796.000000	0.043099
795.000000	0.043473
794.000000	0.043767
793.000000	0.043927
792.000000	0.044067
791.000000	0.044423
790.000000	0.044729
789.000000	0.044952
788.000000	0.045217
787.000000	0.045444
786.000000	0.045528
785.000000	0.045748
784.000000	0.045965
783.000000	0.046089
782.000000	0.046218
781.000000	0.046309
780.000000	0.046339
779.000000	0.046380
778.000000	0.046328
777.000000	0.046491
776.000000	0.046360
775.000000	0.046278
774.000000	0.046202
773.000000	0.046188
772.000000	0.046277
771.000000	0.046158
770.000000	0.046245
769.000000	0.046280
768.000000	0.046166
767.000000	0.046224
766.000000	0.046329
765.000000	0.046327
764.000000	0.046418
763.000000	0.046377
762.000000	0.046369
761.000000	0.046388
760.000000	0.046472
759.000000	0.046422
758.000000	0.046476
757.000000	0.046484
756.000000	0.046255
755.000000	0.046193
754.000000	0.046173
753.000000	0.046045
752.000000	0.045921
751.000000	0.045849
750.000000	0.045803
749.000000	0.045679
748.000000	0.045689
747.000000	0.045599
746.000000	0.045478
745.000000	0.045455
744.000000	0.045358
743.000000	0.045221
742.000000	0.045118
741.000000	0.044994
740.000000	0.044915
739.000000	0.044804
738.000000	0.044575
737.000000	0.044362
736.000000	0.044136
735.000000	0.043841
734.000000	0.043466
733.000000	0.043046
732.000000	0.042666
731.000000	0.042272
730.000000	0.041998
729.000000	0.041733
728.000000	0.041392
727.000000	0.041051
726.000000	0.040821
725.000000	0.040725
724.000000	0.040559
723.000000	0.040372
722.000000	0.040179
721.000000	0.039926
720.000000	0.039716
719.000000	0.039581
718.000000	0.039416
717.000000	0.039125
716.000000	0.038896
715.000000	0.038669
714.000000	0.038396
713.000000	0.038209
712.000000	0.038029
711.000000	0.037844
710.000000	0.037651
709.000000	0.037445
708.000000	0.037303
707.000000	0.037238
706.000000	0.037124
705.000000	0.037032
704.000000	0.037021
703.000000	0.036942
702.000000	0.036900
701.000000	0.036977
700.000000	0.036960
699.000000	0.036914
698.000000	0.036924
697.000000	0.036960
696.000000	0.036996
695.000000	0.036954
694.000000	0.036956
693.000000	0.036989
692.000000	0.036903
691.000000	0.036775
690.000000	0.036719
689.000000	0.036682
688.000000	0.036609
687.000000	0.036590
686.000000	0.036518
685.000000	0.036369
684.000000	0.036293
683.000000	0.036175
682.000000	0.036022
681.000000	0.035920
680.000000	0.035856
679.000000	0.035749
678.000000	0.035616
677.000000	0.035521
676.000000	0.035465
675.000000	0.035350
674.000000	0.035282
673.000000	0.035281
672.000000	0.035253
671.000000	0.035183
670.000000	0.035201
669.000000	0.035236
668.000000	0.035283
667.000000	0.035344
666.000000	0.035396
665.000000	0.035472
664.000000	0.035465
663.000000	0.035546
662.000000	0.035734
661.000000	0.035877
660.000000	0.035968
659.000000	0.036030
658.000000	0.036087
657.000000	0.036241
656.000000	0.036402
655.000000	0.036441
654.000000	0.036541
653.000000	0.036687
652.000000	0.036730
651.000000	0.036889
650.000000	0.036960
649.000000	0.037026
648.000000	0.037119
647.000000	0.037155
646.000000	0.037092
645.000000	0.037044
644.000000	0.037100
643.000000	0.037126
642.000000	0.037058
641.000000	0.036999
640.000000	0.036988
639.000000	0.036939
638.000000	0.036999
637.000000	0.037028
636.000000	0.037050
635.000000	0.037129
634.000000	0.037055
633.000000	0.037066
632.000000	0.037138
631.000000	0.037177
630.000000	0.037272
629.000000	0.037432
628.000000	0.037364
627.000000	0.037443
626.000000	0.037510
625.000000	0.037627
624.000000	0.037640
623.000000	0.037726
622.000000	0.037776
621.000000	0.037884
620.000000	0.037930
619.000000	0.037980
618.000000	0.038053
617.000000	0.038132
616.000000	0.038126
615.000000	0.038231
614.000000	0.038338
613.000000	0.038357
612.000000	0.038379
611.000000	0.038464
610.000000	0.038482
609.000000	0.038530
608.000000	0.038698
607.000000	0.038749
606.000000	0.038801
605.000000	0.038847
604.000000	0.038744
603.000000	0.038968
602.000000	0.038929
601.000000	0.038927
600.000000	0.038946
599.000000	0.038878
598.000000	0.038733
597.000000	0.039004
596.000000	0.038964
595.000000	0.039029
594.000000	0.038973
593.000000	0.039102
592.000000	0.039204
591.000000	0.039245
590.000000	0.039458
589.000000	0.039349
588.000000	0.039518
587.000000	0.039496
586.000000	0.039465
585.000000	0.039723
584.000000	0.039821
583.000000	0.039803
582.000000	0.039945
581.000000	0.040059
580.000000	0.040007
579.000000	0.040222
578.000000	0.040438
577.000000	0.040336
576.000000	0.040408
575.000000	0.040572
574.000000	0.040576
573.000000	0.040689
572.000000	0.040876
571.000000	0.040887
570.000000	0.040981
569.000000	0.040955
568.000000	0.040947
567.000000	0.041131
566.000000	0.041165
565.000000	0.041057
564.000000	0.041116
563.000000	0.041125
562.000000	0.041040
561.000000	0.041168
560.000000	0.041172
559.000000	0.041122
558.000000	0.041195
557.000000	0.041226
556.000000	0.041195
555.000000	0.041160
554.000000	0.041180
553.000000	0.041223
552.000000	0.041217
551.000000	0.041215
550.000000	0.041277
549.000000	0.041264
548.000000	0.041268
547.000000	0.041365
546.000000	0.041420
545.000000	0.041436
544.000000	0.041460
543.000000	0.041486
542.000000	0.041563
541.000000	0.041643
540.000000	0.041735
539.000000	0.041866
538.000000	0.041873
537.000000	0.041963
536.000000	0.042042
535.000000	0.042167
534.000000	0.042248
533.000000	0.042376
532.000000	0.042541
531.000000	0.042644
530.000000	0.042691
529.000000	0.042813
528.000000	0.043020
527.000000	0.043085
526.000000	0.043232
525.000000	0.043357
524.000000	0.043404
523.000000	0.043540
522.000000	0.043676
521.000000	0.043841
520.000000	0.044000
519.000000	0.044119
518.000000	0.044226
517.000000	0.044372
516.000000	0.044441
515.000000	0.044635
514.000000	0.044836
513.000000	0.044938
512.000000	0.044985
511.000000	0.045132
510.000000	0.045217
509.000000	0.045337
508.000000	0.045481
507.000000	0.045601
506.000000	0.045769
505.000000	0.045946
504.000000	0.046131
503.000000	0.046357
502.000000	0.046561
501.000000	0.046673
500.000000	0.046879
499.000000	0.047111
498.000000	0.047316
497.000000	0.047492
496.000000	0.047780
495.000000	0.048044
494.000000	0.048231
493.000000	0.048460
492.000000	0.048755
491.000000	0.049008
490.000000	0.049227
489.000000	0.049465
488.000000	0.049696
487.000000	0.049961
486.000000	0.050200
485.000000	0.050445
484.000000	0.050661
483.000000	0.050818
482.000000	0.051087
481.000000	0.051479
480.000000	0.051639
479.000000	0.051792
478.000000	0.052067
477.000000	0.052288
476.000000	0.052460
475.000000	0.052716
474.000000	0.052994
473.000000	0.053249
472.000000	0.053437
471.000000	0.053716
470.000000	0.053996
469.000000	0.054190
468.000000	0.054388
467.000000	0.054685
466.000000	0.054975
465.000000	0.055164
464.000000	0.055491
463.000000	0.055755
462.000000	0.055970
461.000000	0.056266
460.000000	0.056636
459.000000	0.056860
458.000000	0.057058
457.000000	0.057379
456.000000	0.057785
455.000000	0.058080
454.000000	0.058294
453.000000	0.058580
452.000000	0.058886
451.000000	0.059190
450.000000	0.059540
449.000000	0.059905
448.000000	0.060258
447.000000	0.060532
446.000000	0.060965
445.000000	0.061420
444.000000	0.061740
443.000000	0.062143
442.000000	0.062574
441.000000	0.063007
440.000000	0.063347
439.000000	0.063857
438.000000	0.064323
437.000000	0.064734
436.000000	0.065180
435.000000	0.065576
434.000000	0.066153
433.000000	0.066709
432.000000	0.067165
431.000000	0.067817
430.000000	0.068364
429.000000	0.068781
428.000000	0.069466
427.000000	0.070104
426.000000	0.070618
425.000000	0.071190
424.000000	0.071760
423.000000	0.072369
422.000000	0.073012
421.000000	0.073722
420.000000	0.074509
419.000000	0.075160
418.000000	0.075806
417.000000	0.076609
416.000000	0.077352
415.000000	0.078141
414.000000	0.078815
413.000000	0.079643
412.000000	0.080467
411.000000	0.081190
410.000000	0.082027
409.000000	0.083018
408.000000	0.083868
407.000000	0.084727
406.000000	0.085642
405.000000	0.086541
404.000000	0.087553
403.000000	0.088538
402.000000	0.089618
401.000000	0.090591
400.000000	0.091647
399.000000	0.092671
398.000000	0.093785
397.000000	0.094921
396.000000	0.095934
395.000000	0.097245
394.000000	0.098586
393.000000	0.099633
392.000000	0.100944
391.000000	0.102294
390.000000	0.103511
389.000000	0.104850
388.000000	0.106229
387.000000	0.107671
386.000000	0.109109
385.000000	0.110505
384.000000	0.112117
383.000000	0.113549
382.000000	0.115048
381.000000	0.116570
380.000000	0.118284
379.000000	0.119868
378.000000	0.121426
377.000000	0.122991
376.000000	0.124653
375.000000	0.126461
374.000000	0.128244
373.000000	0.130065
372.000000	0.131784
371.000000	0.133434
370.000000	0.135443
369.000000	0.137340
368.000000	0.139238
367.000000	0.141256
366.000000	0.143256
365.000000	0.145119
364.000000	0.147231
363.000000	0.149249
362.000000	0.151423
361.000000	0.153551
360.000000	0.155678
359.000000	0.157848
358.000000	0.160127
357.000000	0.162286
356.000000	0.164615
355.000000	0.166883
354.000000	0.169188
353.000000	0.171432
352.000000	0.173865
351.000000	0.176392
350.000000	0.178890
349.000000	0.181162
348.000000	0.183810
347.000000	0.186283
346.000000	0.188896
345.000000	0.191486
344.000000	0.194032
343.000000	0.196624
342.000000	0.199303
341.000000	0.202042
340.000000	0.204851
339.000000	0.207546
338.000000	0.210459
337.000000	0.213321
336.000000	0.216153
335.000000	0.219035
334.000000	0.222070
333.000000	0.225165
332.000000	0.228172
331.000000	0.231408
330.000000	0.234692
329.000000	0.237968
328.000000	0.241099
327.000000	0.244326
326.000000	0.247652
325.000000	0.250947
324.000000	0.254278
323.000000	0.257727
322.000000	0.261277
321.000000	0.264758
320.000000	0.268287
319.000000	0.272038
318.000000	0.276392
317.000000	0.281254
316.000000	0.284939
315.000000	0.288667
314.000000	0.292473
313.000000	0.296484
312.000000	0.300367
311.000000	0.304213
310.000000	0.308195
309.000000	0.312199
308.000000	0.316185
307.000000	0.320262
306.000000	0.324368
305.000000	0.328500
304.000000	0.332615
303.000000	0.336859
302.000000	0.341233
301.000000	0.345525
300.000000	0.349889
299.000000	0.354392
298.000000	0.358997
297.000000	0.363363
296.000000	0.367987
295.000000	0.372846
294.000000	0.377661
293.000000	0.382642
292.000000	0.387691
291.000000	0.392917
290.000000	0.398250
289.000000	0.403564
288.000000	0.409034
287.000000	0.414551
286.000000	0.420071
285.000000	0.425858
284.000000	0.431632
283.000000	0.437391
282.000000	0.443351
281.000000	0.449385
280.000000	0.455318
279.000000	0.461323
278.000000	0.467577
277.000000	0.473966
276.000000	0.480294
275.000000	0.486578
274.000000	0.493067
273.000000	0.499642
272.000000	0.506146
271.000000	0.512655
270.000000	0.519267
269.000000	0.525734
268.000000	0.532114
267.000000	0.538558
266.000000	0.544791
265.000000	0.550881
264.000000	0.556968
263.000000	0.562890
262.000000	0.568660
261.000000	0.574208
260.000000	0.579640
259.000000	0.584979
258.000000	0.590128
257.000000	0.595149
256.000000	0.600254
255.000000	0.605380
254.000000	0.610404
253.000000	0.615541
252.000000	0.620703
251.000000	0.625872
250.000000	0.631203
249.000000	0.636759
248.000000	0.642775
247.000000	0.649015
246.000000	0.655758
245.000000	0.663137
244.000000	0.671072
243.000000	0.679750
242.000000	0.688895
241.000000	0.698928
240.000000	0.709930
239.000000	0.721803
238.000000	0.735021
237.000000	0.749678
236.000000	0.766084
235.000000	0.784487
234.000000	0.805137
233.000000	0.827609
232.000000	0.852198
231.000000	0.879060
230.000000	0.908413
229.000000	0.940136
228.000000	0.974763
227.000000	1.013138
226.000000	1.055216
225.000000	1.100505
224.000000	1.149286
223.000000	1.202248
222.000000	1.258633
221.000000	1.318407
220.000000	1.381619
219.000000	1.447643
218.000000	1.515621
217.000000	1.585899
216.000000	1.658060
215.000000	1.730470
214.000000	1.802436
213.000000	1.874461
212.000000	1.944366
211.000000	2.010166
210.000000	2.073210
209.000000	2.132525
208.000000	2.186022
207.000000	2.234137
206.000000	2.279629
205.000000	2.319357
204.000000	2.354767
203.000000	2.383290
202.000000	2.413070
201.000000	2.442744
200.000000	2.469728
