PE UV       SUBTECH     SPECTRUM    ASCII       PEDS        4.00        
   -1
MQ41005.Sample.Raw.asc
11/05/10
15:47:26.00
11/05/10
15:47:26.00
Hermanni Kaartokallio

200.000000
1
Lambda 650
650N8121101
PerkinElmer UV WinLab 6.0.2.0723 / 1.61.00 Lambda 650

0
0
2
0
0
UV/VIS
1
1
1
uv/vis/nir detector
0
0
0
0
Fix
 
0
0.24
0
0
0
 
 
 
0
 
0
319.2
0
Front
100
 
 
 
0
0
0
 
0
 
 
 
0
 
 
0
0
0
0
0
 
 
 
 
0
0
#HDR
-1
-1
#GR
nm
A
1.0
0.0
800.000000
-1.000000
601
8
0.113661
0.032793
#DATA
800.000000	0.042087
799.000000	0.042051
798.000000	0.042190
797.000000	0.042279
796.000000	0.042297
795.000000	0.042563
794.000000	0.042780
793.000000	0.043069
792.000000	0.043329
791.000000	0.043585
790.000000	0.043775
789.000000	0.044089
788.000000	0.044209
787.000000	0.044491
786.000000	0.044880
785.000000	0.044961
784.000000	0.045040
783.000000	0.045198
782.000000	0.045334
781.000000	0.045199
780.000000	0.045525
779.000000	0.045545
778.000000	0.045483
777.000000	0.045429
776.000000	0.045462
775.000000	0.045542
774.000000	0.045627
773.000000	0.045483
772.000000	0.045504
771.000000	0.045313
770.000000	0.045276
769.000000	0.045424
768.000000	0.045585
767.000000	0.045406
766.000000	0.045228
765.000000	0.045296
764.000000	0.045436
763.000000	0.045325
762.000000	0.045382
761.000000	0.045287
760.000000	0.045246
759.000000	0.045046
758.000000	0.045023
757.000000	0.045149
756.000000	0.045029
755.000000	0.044852
754.000000	0.044804
753.000000	0.044740
752.000000	0.044593
751.000000	0.044393
750.000000	0.044555
749.000000	0.044332
748.000000	0.044198
747.000000	0.044165
746.000000	0.044111
745.000000	0.044047
744.000000	0.044048
743.000000	0.043851
742.000000	0.043693
741.000000	0.043477
740.000000	0.043372
739.000000	0.043345
738.000000	0.043176
737.000000	0.042784
736.000000	0.042533
735.000000	0.042270
734.000000	0.041855
733.000000	0.041440
732.000000	0.041243
731.000000	0.040812
730.000000	0.040359
729.000000	0.040045
728.000000	0.039799
727.000000	0.039569
726.000000	0.039415
725.000000	0.039235
724.000000	0.039013
723.000000	0.038790
722.000000	0.038580
721.000000	0.038459
720.000000	0.038322
719.000000	0.038062
718.000000	0.037841
717.000000	0.037573
716.000000	0.037257
715.000000	0.037022
714.000000	0.036884
713.000000	0.036612
712.000000	0.036251
711.000000	0.035988
710.000000	0.035786
709.000000	0.035632
708.000000	0.035509
707.000000	0.035313
706.000000	0.035131
705.000000	0.035034
704.000000	0.034918
703.000000	0.034952
702.000000	0.034950
701.000000	0.034798
700.000000	0.034761
699.000000	0.034717
698.000000	0.034648
697.000000	0.034734
696.000000	0.034827
695.000000	0.034747
694.000000	0.034638
693.000000	0.034669
692.000000	0.034659
691.000000	0.034644
690.000000	0.034605
689.000000	0.034499
688.000000	0.034477
687.000000	0.034419
686.000000	0.034228
685.000000	0.034008
684.000000	0.033866
683.000000	0.033797
682.000000	0.033760
681.000000	0.033721
680.000000	0.033557
679.000000	0.033383
678.000000	0.033280
677.000000	0.033211
676.000000	0.033189
675.000000	0.033110
674.000000	0.032996
673.000000	0.032892
672.000000	0.032827
671.000000	0.032793
670.000000	0.032891
669.000000	0.032938
668.000000	0.032894
667.000000	0.032901
666.000000	0.032999
665.000000	0.033009
664.000000	0.033152
663.000000	0.033212
662.000000	0.033218
661.000000	0.033341
660.000000	0.033471
659.000000	0.033644
658.000000	0.033743
657.000000	0.033857
656.000000	0.033930
655.000000	0.034001
654.000000	0.034136
653.000000	0.034263
652.000000	0.034455
651.000000	0.034575
650.000000	0.034491
649.000000	0.034547
648.000000	0.034641
647.000000	0.034693
646.000000	0.034729
645.000000	0.034704
644.000000	0.034596
643.000000	0.034556
642.000000	0.034522
641.000000	0.034397
640.000000	0.034472
639.000000	0.034436
638.000000	0.034255
637.000000	0.034207
636.000000	0.034167
635.000000	0.034131
634.000000	0.034165
633.000000	0.034103
632.000000	0.034031
631.000000	0.033939
630.000000	0.033976
629.000000	0.034108
628.000000	0.034166
627.000000	0.034122
626.000000	0.034070
625.000000	0.034092
624.000000	0.034038
623.000000	0.034150
622.000000	0.034346
621.000000	0.034416
620.000000	0.034355
619.000000	0.034329
618.000000	0.034353
617.000000	0.034402
616.000000	0.034475
615.000000	0.034533
614.000000	0.034509
613.000000	0.034553
612.000000	0.034466
611.000000	0.034502
610.000000	0.034671
609.000000	0.034634
608.000000	0.034615
607.000000	0.034643
606.000000	0.034626
605.000000	0.034645
604.000000	0.034663
603.000000	0.034827
602.000000	0.034607
601.000000	0.034624
600.000000	0.034603
599.000000	0.034483
598.000000	0.034533
597.000000	0.034663
596.000000	0.034508
595.000000	0.034495
594.000000	0.034436
593.000000	0.034499
592.000000	0.034547
591.000000	0.034762
590.000000	0.034839
589.000000	0.034648
588.000000	0.034724
587.000000	0.034707
586.000000	0.034608
585.000000	0.034976
584.000000	0.035004
583.000000	0.034772
582.000000	0.034838
581.000000	0.034969
580.000000	0.034899
579.000000	0.035232
578.000000	0.035285
577.000000	0.035083
576.000000	0.035105
575.000000	0.035164
574.000000	0.035185
573.000000	0.035342
572.000000	0.035430
571.000000	0.035325
570.000000	0.035304
569.000000	0.035182
568.000000	0.035035
567.000000	0.035279
566.000000	0.035325
565.000000	0.035019
564.000000	0.035029
563.000000	0.034920
562.000000	0.034729
561.000000	0.034771
560.000000	0.034813
559.000000	0.034627
558.000000	0.034443
557.000000	0.034406
556.000000	0.034371
555.000000	0.034280
554.000000	0.034317
553.000000	0.034240
552.000000	0.034040
551.000000	0.033989
550.000000	0.033998
549.000000	0.033937
548.000000	0.033954
547.000000	0.033837
546.000000	0.033826
545.000000	0.033773
544.000000	0.033655
543.000000	0.033595
542.000000	0.033764
541.000000	0.033700
540.000000	0.033598
539.000000	0.033617
538.000000	0.033603
537.000000	0.033722
536.000000	0.033679
535.000000	0.033655
534.000000	0.033882
533.000000	0.033791
532.000000	0.033800
531.000000	0.033890
530.000000	0.033774
529.000000	0.033641
528.000000	0.033791
527.000000	0.033815
526.000000	0.033882
525.000000	0.034062
524.000000	0.033979
523.000000	0.033881
522.000000	0.033933
521.000000	0.033949
520.000000	0.034211
519.000000	0.034195
518.000000	0.034044
517.000000	0.033964
516.000000	0.034028
515.000000	0.034052
514.000000	0.034156
513.000000	0.034245
512.000000	0.034150
511.000000	0.034055
510.000000	0.034132
509.000000	0.034189
508.000000	0.034264
507.000000	0.034337
506.000000	0.034347
505.000000	0.034268
504.000000	0.034332
503.000000	0.034387
502.000000	0.034573
501.000000	0.034706
500.000000	0.034555
499.000000	0.034552
498.000000	0.034741
497.000000	0.034770
496.000000	0.034889
495.000000	0.035114
494.000000	0.035170
493.000000	0.035157
492.000000	0.035273
491.000000	0.035429
490.000000	0.035558
489.000000	0.035661
488.000000	0.035622
487.000000	0.035653
486.000000	0.035763
485.000000	0.035815
484.000000	0.036005
483.000000	0.036114
482.000000	0.035954
481.000000	0.035945
480.000000	0.036041
479.000000	0.035971
478.000000	0.036065
477.000000	0.036270
476.000000	0.036126
475.000000	0.036015
474.000000	0.036063
473.000000	0.036139
472.000000	0.036178
471.000000	0.036240
470.000000	0.036112
469.000000	0.036051
468.000000	0.036030
467.000000	0.036037
466.000000	0.036261
465.000000	0.036312
464.000000	0.036035
463.000000	0.035945
462.000000	0.035949
461.000000	0.035889
460.000000	0.036002
459.000000	0.035995
458.000000	0.035813
457.000000	0.035784
456.000000	0.035850
455.000000	0.035872
454.000000	0.035836
453.000000	0.035796
452.000000	0.035595
451.000000	0.035597
450.000000	0.035610
449.000000	0.035537
448.000000	0.035681
447.000000	0.035740
446.000000	0.035467
445.000000	0.035495
444.000000	0.035531
443.000000	0.035513
442.000000	0.035536
441.000000	0.035629
440.000000	0.035403
439.000000	0.035407
438.000000	0.035370
437.000000	0.035438
436.000000	0.035531
435.000000	0.035507
434.000000	0.035324
433.000000	0.035358
432.000000	0.035343
431.000000	0.035297
430.000000	0.035543
429.000000	0.035503
428.000000	0.035270
427.000000	0.035328
426.000000	0.035370
425.000000	0.035296
424.000000	0.035363
423.000000	0.035466
422.000000	0.035259
421.000000	0.035329
420.000000	0.035366
419.000000	0.035378
418.000000	0.035532
417.000000	0.035591
416.000000	0.035287
415.000000	0.035468
414.000000	0.035388
413.000000	0.035369
412.000000	0.035616
411.000000	0.035636
410.000000	0.035311
409.000000	0.035405
408.000000	0.035498
407.000000	0.035559
406.000000	0.035585
405.000000	0.035576
404.000000	0.035522
403.000000	0.035509
402.000000	0.035484
401.000000	0.035679
400.000000	0.035839
399.000000	0.035896
398.000000	0.035634
397.000000	0.035823
396.000000	0.035803
395.000000	0.035821
394.000000	0.036080
393.000000	0.036072
392.000000	0.035881
391.000000	0.036061
390.000000	0.036054
389.000000	0.036275
388.000000	0.036544
387.000000	0.036557
386.000000	0.036430
385.000000	0.036602
384.000000	0.036633
383.000000	0.036675
382.000000	0.037046
381.000000	0.037092
380.000000	0.036840
379.000000	0.037047
378.000000	0.037145
377.000000	0.037169
376.000000	0.037128
375.000000	0.037211
374.000000	0.037379
373.000000	0.037425
372.000000	0.037446
371.000000	0.037604
370.000000	0.037700
369.000000	0.037564
368.000000	0.037854
367.000000	0.037872
366.000000	0.037948
365.000000	0.038092
364.000000	0.038168
363.000000	0.038073
362.000000	0.038112
361.000000	0.038170
360.000000	0.038154
359.000000	0.038353
358.000000	0.038321
357.000000	0.038306
356.000000	0.038354
355.000000	0.038364
354.000000	0.038430
353.000000	0.038511
352.000000	0.038544
351.000000	0.038474
350.000000	0.038534
349.000000	0.038514
348.000000	0.038629
347.000000	0.038756
346.000000	0.038801
345.000000	0.038713
344.000000	0.038653
343.000000	0.038597
342.000000	0.038636
341.000000	0.038783
340.000000	0.038726
339.000000	0.038748
338.000000	0.038777
337.000000	0.038835
336.000000	0.038857
335.000000	0.039061
334.000000	0.039091
333.000000	0.039079
332.000000	0.039138
331.000000	0.039221
330.000000	0.039326
329.000000	0.039458
328.000000	0.039515
327.000000	0.039543
326.000000	0.039502
325.000000	0.039478
324.000000	0.039486
323.000000	0.039652
322.000000	0.039676
321.000000	0.039699
320.000000	0.039790
319.000000	0.039791
318.000000	0.040175
317.000000	0.040845
316.000000	0.040992
315.000000	0.041021
314.000000	0.040962
313.000000	0.041102
312.000000	0.041207
311.000000	0.041334
310.000000	0.041587
309.000000	0.041665
308.000000	0.041643
307.000000	0.041768
306.000000	0.041886
305.000000	0.042019
304.000000	0.042215
303.000000	0.042284
302.000000	0.042218
301.000000	0.042320
300.000000	0.042430
299.000000	0.042593
298.000000	0.042928
297.000000	0.042992
296.000000	0.043110
295.000000	0.043234
294.000000	0.043353
293.000000	0.043598
292.000000	0.043687
291.000000	0.043819
290.000000	0.043959
289.000000	0.044058
288.000000	0.044267
287.000000	0.044454
286.000000	0.044598
285.000000	0.044739
284.000000	0.044938
283.000000	0.045077
282.000000	0.045138
281.000000	0.045401
280.000000	0.045577
279.000000	0.045591
278.000000	0.045726
277.000000	0.045922
276.000000	0.046104
275.000000	0.046271
274.000000	0.046491
273.000000	0.046586
272.000000	0.046601
271.000000	0.046718
270.000000	0.046972
269.000000	0.047222
268.000000	0.047258
267.000000	0.047425
266.000000	0.047546
265.000000	0.047582
264.000000	0.047686
263.000000	0.047981
262.000000	0.048262
261.000000	0.048293
260.000000	0.048366
259.000000	0.048588
258.000000	0.048746
257.000000	0.049007
256.000000	0.049236
255.000000	0.049359
254.000000	0.049573
253.000000	0.049868
252.000000	0.050150
251.000000	0.050451
250.000000	0.050642
249.000000	0.050863
248.000000	0.051241
247.000000	0.051450
246.000000	0.051671
245.000000	0.052127
244.000000	0.052596
243.000000	0.052848
242.000000	0.053104
241.000000	0.053581
240.000000	0.054091
239.000000	0.054534
238.000000	0.054998
237.000000	0.055420
236.000000	0.055847
235.000000	0.056405
234.000000	0.057123
233.000000	0.057932
232.000000	0.058497
231.000000	0.058984
230.000000	0.059792
229.000000	0.060508
228.000000	0.061145
227.000000	0.062027
226.000000	0.062867
225.000000	0.063521
224.000000	0.064141
223.000000	0.064928
222.000000	0.065802
221.000000	0.066666
220.000000	0.067517
219.000000	0.068440
218.000000	0.069372
217.000000	0.070386
216.000000	0.071550
215.000000	0.072928
214.000000	0.074047
213.000000	0.075573
212.000000	0.077179
211.000000	0.078889
210.000000	0.080615
209.000000	0.082816
208.000000	0.084917
207.000000	0.087257
206.000000	0.089747
205.000000	0.092645
204.000000	0.095930
203.000000	0.099358
202.000000	0.103360
201.000000	0.108276
200.000000	0.113661
