PE UV       SUBTECH     SPECTRUM    ASCII       PEDS        4.00        
   -1
MQ1_1CM-CELL.Sample.Raw.asc
10/10/29
09:05:10.00
10/10/29
09:05:10.00
Hermanni Kaartokallio

200.000000
1
Lambda 650
650N8121101
PerkinElmer UV WinLab 6.0.2.0723 / 1.61.00 Lambda 650

0
0
2
0
0
UV/VIS
1
1
1
150mm sphere / downward view
0
0
0
0
Fix
 
0
0.24
0
0
0
 
 
 
0
 
0
319.2
0
Front
100
 
 
 
0
0
0
 
0
 
 
 
0
 
 
0
0
0
0
0
 
 
 
 
0
0
#HDR
-1
-1
#GR
nm
A
1.0
0.0
800.000000
-1.000000
601
8
0.106577
0.039724
#DATA
800.000000	0.049055
799.000000	0.049038
798.000000	0.049219
797.000000	0.049463
796.000000	0.049467
795.000000	0.049620
794.000000	0.049508
793.000000	0.049680
792.000000	0.049935
791.000000	0.050176
790.000000	0.049935
789.000000	0.049722
788.000000	0.050402
787.000000	0.050030
786.000000	0.050302
785.000000	0.050193
784.000000	0.050591
783.000000	0.050468
782.000000	0.050362
781.000000	0.050787
780.000000	0.050986
779.000000	0.050908
778.000000	0.050670
777.000000	0.051161
776.000000	0.050810
775.000000	0.050702
774.000000	0.050720
773.000000	0.051036
772.000000	0.050982
771.000000	0.050897
770.000000	0.051380
769.000000	0.051440
768.000000	0.051198
767.000000	0.051520
766.000000	0.051284
765.000000	0.051705
764.000000	0.051288
763.000000	0.050767
762.000000	0.051537
761.000000	0.051279
760.000000	0.051420
759.000000	0.051248
758.000000	0.051340
757.000000	0.051533
756.000000	0.051222
755.000000	0.051727
754.000000	0.051558
753.000000	0.051273
752.000000	0.051267
751.000000	0.051368
750.000000	0.051411
749.000000	0.051266
748.000000	0.051314
747.000000	0.051324
746.000000	0.050861
745.000000	0.051256
744.000000	0.051120
743.000000	0.050797
742.000000	0.051022
741.000000	0.050936
740.000000	0.050911
739.000000	0.050756
738.000000	0.050702
737.000000	0.050538
736.000000	0.050150
735.000000	0.049608
734.000000	0.049551
733.000000	0.049163
732.000000	0.048691
731.000000	0.048044
730.000000	0.047475
729.000000	0.046921
728.000000	0.046442
727.000000	0.046191
726.000000	0.045986
725.000000	0.045805
724.000000	0.045276
723.000000	0.045050
722.000000	0.044806
721.000000	0.044570
720.000000	0.044144
719.000000	0.043861
718.000000	0.044041
717.000000	0.043937
716.000000	0.043811
715.000000	0.043695
714.000000	0.043421
713.000000	0.043180
712.000000	0.042950
711.000000	0.042732
710.000000	0.042630
709.000000	0.042611
708.000000	0.042638
707.000000	0.042583
706.000000	0.042552
705.000000	0.042319
704.000000	0.042056
703.000000	0.042038
702.000000	0.041914
701.000000	0.041884
700.000000	0.041885
699.000000	0.041726
698.000000	0.041617
697.000000	0.041504
696.000000	0.041476
695.000000	0.041443
694.000000	0.041427
693.000000	0.041577
692.000000	0.041531
691.000000	0.041258
690.000000	0.041160
689.000000	0.041259
688.000000	0.041288
687.000000	0.041133
686.000000	0.041131
685.000000	0.041046
684.000000	0.040993
683.000000	0.041109
682.000000	0.041099
681.000000	0.041026
680.000000	0.040991
679.000000	0.041125
678.000000	0.041139
677.000000	0.041064
676.000000	0.041023
675.000000	0.040926
674.000000	0.040974
673.000000	0.041165
672.000000	0.041079
671.000000	0.040999
670.000000	0.041040
669.000000	0.040928
668.000000	0.041046
667.000000	0.041030
666.000000	0.041010
665.000000	0.041125
664.000000	0.041095
663.000000	0.041036
662.000000	0.041046
661.000000	0.040995
660.000000	0.041001
659.000000	0.040868
658.000000	0.040874
657.000000	0.040958
656.000000	0.040825
655.000000	0.040823
654.000000	0.040739
653.000000	0.040722
652.000000	0.040673
651.000000	0.040690
650.000000	0.040634
649.000000	0.040685
648.000000	0.040688
647.000000	0.040673
646.000000	0.040610
645.000000	0.040423
644.000000	0.040530
643.000000	0.040631
642.000000	0.040619
641.000000	0.040560
640.000000	0.040600
639.000000	0.040641
638.000000	0.040679
637.000000	0.040582
636.000000	0.040561
635.000000	0.040631
634.000000	0.040516
633.000000	0.040397
632.000000	0.040566
631.000000	0.040502
630.000000	0.040603
629.000000	0.040739
628.000000	0.040509
627.000000	0.040655
626.000000	0.040708
625.000000	0.040568
624.000000	0.040579
623.000000	0.040375
622.000000	0.040492
621.000000	0.040515
620.000000	0.040489
619.000000	0.040559
618.000000	0.040558
617.000000	0.040589
616.000000	0.040475
615.000000	0.040495
614.000000	0.040705
613.000000	0.040670
612.000000	0.040442
611.000000	0.040664
610.000000	0.040778
609.000000	0.040657
608.000000	0.040640
607.000000	0.040551
606.000000	0.040551
605.000000	0.040702
604.000000	0.040466
603.000000	0.040525
602.000000	0.040367
601.000000	0.040231
600.000000	0.040388
599.000000	0.040487
598.000000	0.040315
597.000000	0.040453
596.000000	0.040278
595.000000	0.040299
594.000000	0.040077
593.000000	0.040116
592.000000	0.040087
591.000000	0.040157
590.000000	0.040166
589.000000	0.040175
588.000000	0.040045
587.000000	0.040006
586.000000	0.040032
585.000000	0.040021
584.000000	0.039950
583.000000	0.040074
582.000000	0.040139
581.000000	0.039988
580.000000	0.039909
579.000000	0.039748
578.000000	0.040049
577.000000	0.040022
576.000000	0.040036
575.000000	0.040010
574.000000	0.040046
573.000000	0.039904
572.000000	0.039907
571.000000	0.040010
570.000000	0.039861
569.000000	0.039943
568.000000	0.039881
567.000000	0.040124
566.000000	0.040112
565.000000	0.039887
564.000000	0.040038
563.000000	0.039952
562.000000	0.040046
561.000000	0.039724
560.000000	0.039842
559.000000	0.039956
558.000000	0.040062
557.000000	0.039976
556.000000	0.039982
555.000000	0.039964
554.000000	0.039949
553.000000	0.040038
552.000000	0.040265
551.000000	0.039993
550.000000	0.039947
549.000000	0.039957
548.000000	0.039795
547.000000	0.039796
546.000000	0.040090
545.000000	0.040214
544.000000	0.040111
543.000000	0.039979
542.000000	0.039945
541.000000	0.040110
540.000000	0.040075
539.000000	0.040066
538.000000	0.039876
537.000000	0.040152
536.000000	0.040040
535.000000	0.040024
534.000000	0.040092
533.000000	0.040105
532.000000	0.040082
531.000000	0.040039
530.000000	0.040062
529.000000	0.039894
528.000000	0.039979
527.000000	0.040172
526.000000	0.040216
525.000000	0.040079
524.000000	0.040174
523.000000	0.040133
522.000000	0.040077
521.000000	0.040203
520.000000	0.040243
519.000000	0.040120
518.000000	0.040050
517.000000	0.040040
516.000000	0.040065
515.000000	0.040183
514.000000	0.040212
513.000000	0.040284
512.000000	0.040301
511.000000	0.040219
510.000000	0.040217
509.000000	0.040168
508.000000	0.040225
507.000000	0.040139
506.000000	0.040139
505.000000	0.039952
504.000000	0.040014
503.000000	0.040178
502.000000	0.040153
501.000000	0.040105
500.000000	0.039909
499.000000	0.040052
498.000000	0.040155
497.000000	0.039927
496.000000	0.039924
495.000000	0.039981
494.000000	0.039926
493.000000	0.039956
492.000000	0.040153
491.000000	0.040173
490.000000	0.040021
489.000000	0.040084
488.000000	0.040100
487.000000	0.040155
486.000000	0.040385
485.000000	0.040500
484.000000	0.040448
483.000000	0.040612
482.000000	0.040657
481.000000	0.040687
480.000000	0.040664
479.000000	0.040520
478.000000	0.040423
477.000000	0.040331
476.000000	0.040350
475.000000	0.040478
474.000000	0.040434
473.000000	0.040414
472.000000	0.040258
471.000000	0.040359
470.000000	0.040578
469.000000	0.040645
468.000000	0.040578
467.000000	0.040392
466.000000	0.040419
465.000000	0.040552
464.000000	0.040598
463.000000	0.040383
462.000000	0.040475
461.000000	0.040521
460.000000	0.040493
459.000000	0.040456
458.000000	0.040461
457.000000	0.040528
456.000000	0.040666
455.000000	0.040796
454.000000	0.040847
453.000000	0.040573
452.000000	0.040619
451.000000	0.040661
450.000000	0.040730
449.000000	0.040899
448.000000	0.040830
447.000000	0.040686
446.000000	0.040838
445.000000	0.040953
444.000000	0.040862
443.000000	0.041070
442.000000	0.041077
441.000000	0.041085
440.000000	0.040947
439.000000	0.040932
438.000000	0.040866
437.000000	0.040920
436.000000	0.041012
435.000000	0.040950
434.000000	0.041170
433.000000	0.041086
432.000000	0.041384
431.000000	0.041050
430.000000	0.041165
429.000000	0.041192
428.000000	0.041069
427.000000	0.041305
426.000000	0.041141
425.000000	0.041122
424.000000	0.041322
423.000000	0.041313
422.000000	0.041116
421.000000	0.041443
420.000000	0.041366
419.000000	0.041599
418.000000	0.041407
417.000000	0.041511
416.000000	0.041270
415.000000	0.041385
414.000000	0.041674
413.000000	0.041807
412.000000	0.041709
411.000000	0.041501
410.000000	0.041603
409.000000	0.041910
408.000000	0.042023
407.000000	0.042016
406.000000	0.041919
405.000000	0.041955
404.000000	0.041770
403.000000	0.042342
402.000000	0.041895
401.000000	0.042072
400.000000	0.042030
399.000000	0.041798
398.000000	0.041972
397.000000	0.042095
396.000000	0.042462
395.000000	0.042111
394.000000	0.041722
393.000000	0.042173
392.000000	0.042076
391.000000	0.042277
390.000000	0.042276
389.000000	0.042209
388.000000	0.042283
387.000000	0.042238
386.000000	0.042423
385.000000	0.041936
384.000000	0.042558
383.000000	0.042463
382.000000	0.042687
381.000000	0.042924
380.000000	0.042443
379.000000	0.042677
378.000000	0.043117
377.000000	0.042278
376.000000	0.042871
375.000000	0.042706
374.000000	0.042582
373.000000	0.043210
372.000000	0.043162
371.000000	0.042731
370.000000	0.043683
369.000000	0.043278
368.000000	0.043277
367.000000	0.043958
366.000000	0.043363
365.000000	0.043634
364.000000	0.043198
363.000000	0.043626
362.000000	0.043108
361.000000	0.043167
360.000000	0.043499
359.000000	0.043689
358.000000	0.042877
357.000000	0.043693
356.000000	0.043953
355.000000	0.043642
354.000000	0.043488
353.000000	0.043810
352.000000	0.044128
351.000000	0.044369
350.000000	0.044502
349.000000	0.044440
348.000000	0.044083
347.000000	0.044265
346.000000	0.043691
345.000000	0.044107
344.000000	0.044835
343.000000	0.044272
342.000000	0.044263
341.000000	0.044503
340.000000	0.044541
339.000000	0.044855
338.000000	0.045277
337.000000	0.044984
336.000000	0.044687
335.000000	0.045072
334.000000	0.045511
333.000000	0.045453
332.000000	0.045138
331.000000	0.045234
330.000000	0.045453
329.000000	0.045123
328.000000	0.045526
327.000000	0.045723
326.000000	0.045318
325.000000	0.045585
324.000000	0.046058
323.000000	0.046056
322.000000	0.045833
321.000000	0.046320
320.000000	0.046128
319.000000	0.046300
318.000000	0.046010
317.000000	0.046216
316.000000	0.046186
315.000000	0.046185
314.000000	0.045879
313.000000	0.045537
312.000000	0.046108
311.000000	0.046487
310.000000	0.046561
309.000000	0.046557
308.000000	0.046884
307.000000	0.046830
306.000000	0.046705
305.000000	0.046577
304.000000	0.046373
303.000000	0.046992
302.000000	0.047559
301.000000	0.047440
300.000000	0.047154
299.000000	0.047623
298.000000	0.047532
297.000000	0.047201
296.000000	0.047766
295.000000	0.047949
294.000000	0.047805
293.000000	0.047975
292.000000	0.047867
291.000000	0.047728
290.000000	0.047567
289.000000	0.048105
288.000000	0.048413
287.000000	0.048237
286.000000	0.048530
285.000000	0.048460
284.000000	0.048431
283.000000	0.048945
282.000000	0.048818
281.000000	0.048759
280.000000	0.049018
279.000000	0.048960
278.000000	0.049388
277.000000	0.049817
276.000000	0.049822
275.000000	0.049958
274.000000	0.049747
273.000000	0.050133
272.000000	0.050438
271.000000	0.050305
270.000000	0.050636
269.000000	0.050587
268.000000	0.051018
267.000000	0.050569
266.000000	0.050196
265.000000	0.050401
264.000000	0.050619
263.000000	0.050941
262.000000	0.051355
261.000000	0.052071
260.000000	0.051725
259.000000	0.051033
258.000000	0.052425
257.000000	0.052353
256.000000	0.052092
255.000000	0.052891
254.000000	0.051871
253.000000	0.052200
252.000000	0.052178
251.000000	0.053097
250.000000	0.053782
249.000000	0.053700
248.000000	0.054888
247.000000	0.055808
246.000000	0.054594
245.000000	0.054520
244.000000	0.054988
243.000000	0.055361
242.000000	0.055135
241.000000	0.054814
240.000000	0.055876
239.000000	0.055509
238.000000	0.055496
237.000000	0.057305
236.000000	0.058016
235.000000	0.058121
234.000000	0.058086
233.000000	0.058164
232.000000	0.058896
231.000000	0.060493
230.000000	0.061187
229.000000	0.059934
228.000000	0.062335
227.000000	0.063336
226.000000	0.061939
225.000000	0.062993
224.000000	0.065142
223.000000	0.064042
222.000000	0.064330
221.000000	0.064091
220.000000	0.066389
219.000000	0.066578
218.000000	0.069289
217.000000	0.069815
216.000000	0.070919
215.000000	0.072402
214.000000	0.072777
213.000000	0.074053
212.000000	0.076054
211.000000	0.077513
210.000000	0.080517
209.000000	0.081662
208.000000	0.082458
207.000000	0.086017
206.000000	0.088980
205.000000	0.090971
204.000000	0.095702
203.000000	0.093901
202.000000	0.097601
201.000000	0.106577
200.000000	0.104139
