PE UV       SUBTECH     SPECTRUM    ASCII       PEDS        4.00        
   -1
MQ2_1CM_CELL.Sample.Raw.asc
10/10/29
09:09:36.00
10/10/29
09:09:36.00
Hermanni Kaartokallio

200.000000
1
Lambda 650
650N8121101
PerkinElmer UV WinLab 6.0.2.0723 / 1.61.00 Lambda 650

0
0
2
0
0
UV/VIS
1
1
1
150mm sphere / downward view
0
0
0
0
Fix
 
0
0.24
0
0
0
 
 
 
0
 
0
319.2
0
Front
100
 
 
 
0
0
0
 
0
 
 
 
0
 
 
0
0
0
0
0
 
 
 
 
0
0
#HDR
-1
-1
#GR
nm
A
1.0
0.0
800.000000
-1.000000
601
8
0.107977
0.039836
#DATA
800.000000	0.048620
799.000000	0.048818
798.000000	0.049016
797.000000	0.048878
796.000000	0.049034
795.000000	0.049404
794.000000	0.049439
793.000000	0.049244
792.000000	0.050136
791.000000	0.049968
790.000000	0.050101
789.000000	0.049468
788.000000	0.049997
787.000000	0.049770
786.000000	0.050522
785.000000	0.050294
784.000000	0.050465
783.000000	0.050295
782.000000	0.050385
781.000000	0.050528
780.000000	0.050515
779.000000	0.050744
778.000000	0.050635
777.000000	0.050807
776.000000	0.051118
775.000000	0.050770
774.000000	0.050732
773.000000	0.050923
772.000000	0.050576
771.000000	0.050899
770.000000	0.051172
769.000000	0.051153
768.000000	0.051638
767.000000	0.051364
766.000000	0.051337
765.000000	0.051481
764.000000	0.051281
763.000000	0.051025
762.000000	0.051524
761.000000	0.051280
760.000000	0.051219
759.000000	0.051126
758.000000	0.051100
757.000000	0.051544
756.000000	0.051284
755.000000	0.051428
754.000000	0.051595
753.000000	0.051460
752.000000	0.051295
751.000000	0.051483
750.000000	0.051391
749.000000	0.051530
748.000000	0.051427
747.000000	0.051306
746.000000	0.051073
745.000000	0.051454
744.000000	0.051243
743.000000	0.051333
742.000000	0.051500
741.000000	0.050994
740.000000	0.050990
739.000000	0.050865
738.000000	0.050966
737.000000	0.050514
736.000000	0.050107
735.000000	0.049800
734.000000	0.049760
733.000000	0.049230
732.000000	0.048648
731.000000	0.048190
730.000000	0.047651
729.000000	0.047267
728.000000	0.046663
727.000000	0.046238
726.000000	0.045967
725.000000	0.045887
724.000000	0.045465
723.000000	0.044939
722.000000	0.044748
721.000000	0.044640
720.000000	0.044353
719.000000	0.044084
718.000000	0.043942
717.000000	0.044001
716.000000	0.043866
715.000000	0.043576
714.000000	0.043306
713.000000	0.043001
712.000000	0.042926
711.000000	0.043031
710.000000	0.042858
709.000000	0.042626
708.000000	0.042501
707.000000	0.042664
706.000000	0.042623
705.000000	0.042345
704.000000	0.042196
703.000000	0.042043
702.000000	0.041931
701.000000	0.042023
700.000000	0.041986
699.000000	0.041810
698.000000	0.041696
697.000000	0.041674
696.000000	0.041628
695.000000	0.041495
694.000000	0.041491
693.000000	0.041530
692.000000	0.041471
691.000000	0.041450
690.000000	0.041404
689.000000	0.041493
688.000000	0.041515
687.000000	0.041435
686.000000	0.041325
685.000000	0.041047
684.000000	0.041068
683.000000	0.041246
682.000000	0.041326
681.000000	0.041239
680.000000	0.041238
679.000000	0.041217
678.000000	0.041206
677.000000	0.041118
676.000000	0.041122
675.000000	0.041031
674.000000	0.041059
673.000000	0.041202
672.000000	0.041180
671.000000	0.041105
670.000000	0.041147
669.000000	0.041010
668.000000	0.041144
667.000000	0.041176
666.000000	0.041119
665.000000	0.041256
664.000000	0.041066
663.000000	0.041192
662.000000	0.041126
661.000000	0.041120
660.000000	0.041186
659.000000	0.040964
658.000000	0.041040
657.000000	0.041161
656.000000	0.040906
655.000000	0.040987
654.000000	0.040953
653.000000	0.040836
652.000000	0.040673
651.000000	0.040718
650.000000	0.040832
649.000000	0.040807
648.000000	0.040678
647.000000	0.040710
646.000000	0.040628
645.000000	0.040613
644.000000	0.040784
643.000000	0.040671
642.000000	0.040746
641.000000	0.040720
640.000000	0.040605
639.000000	0.040799
638.000000	0.040743
637.000000	0.040895
636.000000	0.040771
635.000000	0.040857
634.000000	0.040711
633.000000	0.040612
632.000000	0.040706
631.000000	0.040699
630.000000	0.040796
629.000000	0.040900
628.000000	0.040741
627.000000	0.040699
626.000000	0.040600
625.000000	0.040794
624.000000	0.040674
623.000000	0.040544
622.000000	0.040800
621.000000	0.040533
620.000000	0.040529
619.000000	0.040643
618.000000	0.040615
617.000000	0.040748
616.000000	0.040670
615.000000	0.040820
614.000000	0.040741
613.000000	0.040738
612.000000	0.040519
611.000000	0.040695
610.000000	0.040923
609.000000	0.040659
608.000000	0.040737
607.000000	0.040577
606.000000	0.040685
605.000000	0.040730
604.000000	0.040737
603.000000	0.040559
602.000000	0.040573
601.000000	0.040436
600.000000	0.040621
599.000000	0.040565
598.000000	0.040454
597.000000	0.040484
596.000000	0.040575
595.000000	0.040426
594.000000	0.040199
593.000000	0.040267
592.000000	0.040207
591.000000	0.040280
590.000000	0.040364
589.000000	0.040345
588.000000	0.040243
587.000000	0.040213
586.000000	0.040249
585.000000	0.040071
584.000000	0.040003
583.000000	0.040125
582.000000	0.040258
581.000000	0.040107
580.000000	0.040132
579.000000	0.040019
578.000000	0.040076
577.000000	0.040135
576.000000	0.040016
575.000000	0.040117
574.000000	0.040214
573.000000	0.039930
572.000000	0.040103
571.000000	0.040179
570.000000	0.039899
569.000000	0.040102
568.000000	0.040092
567.000000	0.040355
566.000000	0.040259
565.000000	0.040152
564.000000	0.040108
563.000000	0.040116
562.000000	0.040184
561.000000	0.040052
560.000000	0.040062
559.000000	0.039993
558.000000	0.040136
557.000000	0.040176
556.000000	0.040048
555.000000	0.039836
554.000000	0.039879
553.000000	0.040318
552.000000	0.040408
551.000000	0.040218
550.000000	0.040099
549.000000	0.040199
548.000000	0.040031
547.000000	0.040027
546.000000	0.040112
545.000000	0.039973
544.000000	0.040222
543.000000	0.040274
542.000000	0.040141
541.000000	0.040151
540.000000	0.040114
539.000000	0.040099
538.000000	0.040044
537.000000	0.040169
536.000000	0.040239
535.000000	0.040259
534.000000	0.040282
533.000000	0.040186
532.000000	0.040105
531.000000	0.040267
530.000000	0.040128
529.000000	0.039919
528.000000	0.040143
527.000000	0.040310
526.000000	0.040365
525.000000	0.040236
524.000000	0.040183
523.000000	0.040303
522.000000	0.040291
521.000000	0.040278
520.000000	0.040379
519.000000	0.040299
518.000000	0.040276
517.000000	0.040142
516.000000	0.040314
515.000000	0.040351
514.000000	0.040299
513.000000	0.040437
512.000000	0.040387
511.000000	0.040315
510.000000	0.040253
509.000000	0.040105
508.000000	0.040134
507.000000	0.040283
506.000000	0.040305
505.000000	0.040159
504.000000	0.040293
503.000000	0.040304
502.000000	0.040277
501.000000	0.040292
500.000000	0.040280
499.000000	0.040367
498.000000	0.040331
497.000000	0.040144
496.000000	0.039988
495.000000	0.039955
494.000000	0.039936
493.000000	0.039972
492.000000	0.040075
491.000000	0.040138
490.000000	0.040167
489.000000	0.040258
488.000000	0.040185
487.000000	0.040213
486.000000	0.040430
485.000000	0.040725
484.000000	0.040734
483.000000	0.040806
482.000000	0.040735
481.000000	0.040706
480.000000	0.040680
479.000000	0.040517
478.000000	0.040543
477.000000	0.040552
476.000000	0.040697
475.000000	0.040685
474.000000	0.040650
473.000000	0.040418
472.000000	0.040388
471.000000	0.040549
470.000000	0.040682
469.000000	0.040787
468.000000	0.040649
467.000000	0.040496
466.000000	0.040495
465.000000	0.040544
464.000000	0.040526
463.000000	0.040554
462.000000	0.040706
461.000000	0.040692
460.000000	0.040803
459.000000	0.040672
458.000000	0.040620
457.000000	0.040637
456.000000	0.040754
455.000000	0.040805
454.000000	0.040749
453.000000	0.040793
452.000000	0.040658
451.000000	0.040743
450.000000	0.040818
449.000000	0.041009
448.000000	0.041089
447.000000	0.040914
446.000000	0.040947
445.000000	0.040994
444.000000	0.040951
443.000000	0.041200
442.000000	0.041359
441.000000	0.041180
440.000000	0.041059
439.000000	0.041154
438.000000	0.040931
437.000000	0.040944
436.000000	0.041092
435.000000	0.041086
434.000000	0.041219
433.000000	0.041153
432.000000	0.041343
431.000000	0.041211
430.000000	0.041340
429.000000	0.041298
428.000000	0.041375
427.000000	0.041606
426.000000	0.041579
425.000000	0.041398
424.000000	0.041463
423.000000	0.041419
422.000000	0.041265
421.000000	0.041453
420.000000	0.041548
419.000000	0.041775
418.000000	0.041419
417.000000	0.041715
416.000000	0.041496
415.000000	0.041533
414.000000	0.041908
413.000000	0.041980
412.000000	0.041722
411.000000	0.041583
410.000000	0.041772
409.000000	0.041534
408.000000	0.042086
407.000000	0.041929
406.000000	0.041758
405.000000	0.041991
404.000000	0.041681
403.000000	0.042157
402.000000	0.041936
401.000000	0.042304
400.000000	0.042154
399.000000	0.041421
398.000000	0.042060
397.000000	0.042145
396.000000	0.042427
395.000000	0.042456
394.000000	0.042075
393.000000	0.042216
392.000000	0.042214
391.000000	0.042378
390.000000	0.042256
389.000000	0.042527
388.000000	0.042508
387.000000	0.042319
386.000000	0.042395
385.000000	0.042540
384.000000	0.042435
383.000000	0.042415
382.000000	0.042609
381.000000	0.042764
380.000000	0.042744
379.000000	0.042889
378.000000	0.043229
377.000000	0.042449
376.000000	0.042994
375.000000	0.043300
374.000000	0.042813
373.000000	0.043241
372.000000	0.042867
371.000000	0.042978
370.000000	0.043936
369.000000	0.043826
368.000000	0.043612
367.000000	0.043862
366.000000	0.043386
365.000000	0.043473
364.000000	0.043628
363.000000	0.043787
362.000000	0.043235
361.000000	0.043183
360.000000	0.043671
359.000000	0.043979
358.000000	0.043511
357.000000	0.043909
356.000000	0.043641
355.000000	0.043662
354.000000	0.044093
353.000000	0.044302
352.000000	0.044082
351.000000	0.043939
350.000000	0.044264
349.000000	0.044200
348.000000	0.044439
347.000000	0.044631
346.000000	0.043799
345.000000	0.044496
344.000000	0.044716
343.000000	0.044734
342.000000	0.044713
341.000000	0.044750
340.000000	0.044499
339.000000	0.044908
338.000000	0.044849
337.000000	0.044395
336.000000	0.044732
335.000000	0.045005
334.000000	0.045375
333.000000	0.045205
332.000000	0.045228
331.000000	0.045544
330.000000	0.045681
329.000000	0.045274
328.000000	0.044950
327.000000	0.045184
326.000000	0.045930
325.000000	0.045439
324.000000	0.045320
323.000000	0.045788
322.000000	0.045870
321.000000	0.046023
320.000000	0.046299
319.000000	0.046555
318.000000	0.045896
317.000000	0.045672
316.000000	0.045938
315.000000	0.046597
314.000000	0.046850
313.000000	0.045650
312.000000	0.045805
311.000000	0.046459
310.000000	0.046316
309.000000	0.047227
308.000000	0.047424
307.000000	0.046495
306.000000	0.046491
305.000000	0.046572
304.000000	0.046594
303.000000	0.047358
302.000000	0.047755
301.000000	0.047755
300.000000	0.047271
299.000000	0.047071
298.000000	0.047334
297.000000	0.047854
296.000000	0.048126
295.000000	0.047595
294.000000	0.047526
293.000000	0.047629
292.000000	0.047393
291.000000	0.047766
290.000000	0.048147
289.000000	0.048073
288.000000	0.048406
287.000000	0.048874
286.000000	0.048742
285.000000	0.048640
284.000000	0.048725
283.000000	0.048628
282.000000	0.048680
281.000000	0.049188
280.000000	0.049543
279.000000	0.049286
278.000000	0.049332
277.000000	0.049976
276.000000	0.049604
275.000000	0.050179
274.000000	0.049879
273.000000	0.049851
272.000000	0.050494
271.000000	0.050647
270.000000	0.050578
269.000000	0.050668
268.000000	0.050493
267.000000	0.050601
266.000000	0.050671
265.000000	0.050575
264.000000	0.050373
263.000000	0.051062
262.000000	0.051118
261.000000	0.051587
260.000000	0.052362
259.000000	0.051658
258.000000	0.052081
257.000000	0.052216
256.000000	0.052214
255.000000	0.052624
254.000000	0.051796
253.000000	0.052292
252.000000	0.052548
251.000000	0.054133
250.000000	0.054224
249.000000	0.054443
248.000000	0.054847
247.000000	0.056069
246.000000	0.054889
245.000000	0.054897
244.000000	0.054531
243.000000	0.054909
242.000000	0.055572
241.000000	0.055060
240.000000	0.055783
239.000000	0.056223
238.000000	0.056380
237.000000	0.056771
236.000000	0.058330
235.000000	0.057916
234.000000	0.058354
233.000000	0.058582
232.000000	0.059971
231.000000	0.060604
230.000000	0.059871
229.000000	0.059898
228.000000	0.061532
227.000000	0.062151
226.000000	0.062310
225.000000	0.063053
224.000000	0.064741
223.000000	0.063968
222.000000	0.065531
221.000000	0.063611
220.000000	0.065183
219.000000	0.065478
218.000000	0.068187
217.000000	0.068701
216.000000	0.070417
215.000000	0.070170
214.000000	0.070773
213.000000	0.073381
212.000000	0.074862
211.000000	0.075106
210.000000	0.077283
209.000000	0.080261
208.000000	0.082301
207.000000	0.084792
206.000000	0.085725
205.000000	0.088846
204.000000	0.092944
203.000000	0.095230
202.000000	0.098307
201.000000	0.103482
200.000000	0.107977
