PE UV       SUBTECH     SPECTRUM    ASCII       PEDS        4.00        
   -1
MQ3_1CM_CELL.Sample.Raw.asc
10/10/29
11:41:55.00
10/10/29
11:41:55.00
Hermanni Kaartokallio

200.000000
1
Lambda 650
650N8121101
PerkinElmer UV WinLab 6.0.2.0723 / 1.61.00 Lambda 650

0
0
2
0
0
UV/VIS
1
1
1
150mm sphere / downward view
0
0
0
0
Fix
 
0
0.24
0
0
0
 
 
 
0
 
0
319.2
0
Front
100
 
 
 
0
0
0
 
0
 
 
 
0
 
 
0
0
0
0
0
 
 
 
 
0
0
#HDR
-1
-1
#GR
nm
A
1.0
0.0
800.000000
-1.000000
601
8
0.115501
0.033555
#DATA
800.000000	0.041383
799.000000	0.041321
798.000000	0.041056
797.000000	0.041207
796.000000	0.041769
795.000000	0.041879
794.000000	0.041955
793.000000	0.041294
792.000000	0.042575
791.000000	0.042443
790.000000	0.042337
789.000000	0.041978
788.000000	0.042414
787.000000	0.042429
786.000000	0.043529
785.000000	0.042697
784.000000	0.042683
783.000000	0.042782
782.000000	0.043272
781.000000	0.043218
780.000000	0.042922
779.000000	0.043304
778.000000	0.043302
777.000000	0.043384
776.000000	0.043430
775.000000	0.043242
774.000000	0.043437
773.000000	0.043295
772.000000	0.043500
771.000000	0.043520
770.000000	0.044168
769.000000	0.044092
768.000000	0.044175
767.000000	0.044039
766.000000	0.043838
765.000000	0.044204
764.000000	0.044058
763.000000	0.043855
762.000000	0.044227
761.000000	0.043953
760.000000	0.043820
759.000000	0.043732
758.000000	0.043968
757.000000	0.044250
756.000000	0.044310
755.000000	0.044085
754.000000	0.044311
753.000000	0.044272
752.000000	0.044280
751.000000	0.044391
750.000000	0.044378
749.000000	0.043838
748.000000	0.043964
747.000000	0.044310
746.000000	0.044137
745.000000	0.044293
744.000000	0.044250
743.000000	0.044088
742.000000	0.044276
741.000000	0.044220
740.000000	0.043871
739.000000	0.043788
738.000000	0.043846
737.000000	0.043241
736.000000	0.043072
735.000000	0.042683
734.000000	0.042552
733.000000	0.041922
732.000000	0.041589
731.000000	0.041070
730.000000	0.040653
729.000000	0.040073
728.000000	0.039367
727.000000	0.039114
726.000000	0.039016
725.000000	0.038930
724.000000	0.038420
723.000000	0.038025
722.000000	0.037596
721.000000	0.037409
720.000000	0.037202
719.000000	0.036905
718.000000	0.036866
717.000000	0.036924
716.000000	0.036694
715.000000	0.036446
714.000000	0.036343
713.000000	0.036131
712.000000	0.035921
711.000000	0.035757
710.000000	0.035719
709.000000	0.035694
708.000000	0.035614
707.000000	0.035583
706.000000	0.035588
705.000000	0.035214
704.000000	0.034983
703.000000	0.035001
702.000000	0.034897
701.000000	0.034920
700.000000	0.035149
699.000000	0.035012
698.000000	0.034721
697.000000	0.034675
696.000000	0.034679
695.000000	0.034506
694.000000	0.034347
693.000000	0.034415
692.000000	0.034449
691.000000	0.034394
690.000000	0.034290
689.000000	0.034340
688.000000	0.034448
687.000000	0.034346
686.000000	0.034297
685.000000	0.034146
684.000000	0.034154
683.000000	0.034173
682.000000	0.034222
681.000000	0.034085
680.000000	0.034089
679.000000	0.034307
678.000000	0.034237
677.000000	0.034241
676.000000	0.034267
675.000000	0.034110
674.000000	0.034064
673.000000	0.034214
672.000000	0.034296
671.000000	0.034045
670.000000	0.034215
669.000000	0.034177
668.000000	0.034240
667.000000	0.034276
666.000000	0.034168
665.000000	0.034347
664.000000	0.034300
663.000000	0.034368
662.000000	0.034154
661.000000	0.034136
660.000000	0.034180
659.000000	0.034108
658.000000	0.034230
657.000000	0.034312
656.000000	0.034102
655.000000	0.034165
654.000000	0.034145
653.000000	0.033949
652.000000	0.033982
651.000000	0.034000
650.000000	0.034011
649.000000	0.033966
648.000000	0.033982
647.000000	0.033873
646.000000	0.034136
645.000000	0.034085
644.000000	0.033887
643.000000	0.034038
642.000000	0.033973
641.000000	0.033963
640.000000	0.034108
639.000000	0.034210
638.000000	0.034068
637.000000	0.034072
636.000000	0.034089
635.000000	0.034031
634.000000	0.034096
633.000000	0.033944
632.000000	0.034075
631.000000	0.033898
630.000000	0.034037
629.000000	0.034236
628.000000	0.034135
627.000000	0.034158
626.000000	0.033963
625.000000	0.033968
624.000000	0.034033
623.000000	0.034053
622.000000	0.034240
621.000000	0.034178
620.000000	0.034031
619.000000	0.034118
618.000000	0.034117
617.000000	0.034094
616.000000	0.034126
615.000000	0.034097
614.000000	0.034153
613.000000	0.034207
612.000000	0.033907
611.000000	0.034054
610.000000	0.034456
609.000000	0.034272
608.000000	0.034222
607.000000	0.034190
606.000000	0.034278
605.000000	0.034152
604.000000	0.034335
603.000000	0.034103
602.000000	0.034063
601.000000	0.033943
600.000000	0.033926
599.000000	0.034084
598.000000	0.033894
597.000000	0.034272
596.000000	0.034126
595.000000	0.033902
594.000000	0.033828
593.000000	0.033731
592.000000	0.033829
591.000000	0.033926
590.000000	0.034043
589.000000	0.033897
588.000000	0.033808
587.000000	0.033555
586.000000	0.033894
585.000000	0.033886
584.000000	0.033784
583.000000	0.033695
582.000000	0.033899
581.000000	0.033719
580.000000	0.033808
579.000000	0.033919
578.000000	0.033875
577.000000	0.033734
576.000000	0.033794
575.000000	0.033710
574.000000	0.033862
573.000000	0.033809
572.000000	0.033851
571.000000	0.033781
570.000000	0.033787
569.000000	0.033818
568.000000	0.033852
567.000000	0.034068
566.000000	0.033901
565.000000	0.033976
564.000000	0.034011
563.000000	0.034001
562.000000	0.033936
561.000000	0.033685
560.000000	0.033848
559.000000	0.033987
558.000000	0.033853
557.000000	0.034058
556.000000	0.033913
555.000000	0.033808
554.000000	0.034027
553.000000	0.034098
552.000000	0.034147
551.000000	0.033865
550.000000	0.033931
549.000000	0.034059
548.000000	0.034021
547.000000	0.034050
546.000000	0.034150
545.000000	0.034173
544.000000	0.034231
543.000000	0.034231
542.000000	0.034318
541.000000	0.034241
540.000000	0.034009
539.000000	0.034080
538.000000	0.034136
537.000000	0.034316
536.000000	0.034385
535.000000	0.034345
534.000000	0.034232
533.000000	0.034261
532.000000	0.034348
531.000000	0.034298
530.000000	0.034349
529.000000	0.034318
528.000000	0.034275
527.000000	0.034308
526.000000	0.034416
525.000000	0.034202
524.000000	0.034208
523.000000	0.034328
522.000000	0.034282
521.000000	0.034298
520.000000	0.034387
519.000000	0.034420
518.000000	0.034514
517.000000	0.034420
516.000000	0.034385
515.000000	0.034476
514.000000	0.034497
513.000000	0.034562
512.000000	0.034659
511.000000	0.034611
510.000000	0.034449
509.000000	0.034349
508.000000	0.034483
507.000000	0.034573
506.000000	0.034716
505.000000	0.034507
504.000000	0.034407
503.000000	0.034544
502.000000	0.034565
501.000000	0.034498
500.000000	0.034545
499.000000	0.034714
498.000000	0.034540
497.000000	0.034367
496.000000	0.034236
495.000000	0.034292
494.000000	0.034377
493.000000	0.034347
492.000000	0.034442
491.000000	0.034598
490.000000	0.034572
489.000000	0.034620
488.000000	0.034723
487.000000	0.034654
486.000000	0.034878
485.000000	0.035131
484.000000	0.035060
483.000000	0.035372
482.000000	0.035410
481.000000	0.035311
480.000000	0.035278
479.000000	0.035110
478.000000	0.035046
477.000000	0.035203
476.000000	0.035304
475.000000	0.035170
474.000000	0.035140
473.000000	0.035084
472.000000	0.035268
471.000000	0.035452
470.000000	0.035342
469.000000	0.035373
468.000000	0.035290
467.000000	0.035143
466.000000	0.035284
465.000000	0.035421
464.000000	0.035319
463.000000	0.035078
462.000000	0.035278
461.000000	0.035322
460.000000	0.035509
459.000000	0.035497
458.000000	0.035554
457.000000	0.035366
456.000000	0.035525
455.000000	0.035593
454.000000	0.035679
453.000000	0.035613
452.000000	0.035544
451.000000	0.035527
450.000000	0.035491
449.000000	0.035733
448.000000	0.035742
447.000000	0.035736
446.000000	0.035885
445.000000	0.035933
444.000000	0.035752
443.000000	0.036030
442.000000	0.036034
441.000000	0.036337
440.000000	0.036095
439.000000	0.035947
438.000000	0.035792
437.000000	0.035925
436.000000	0.036197
435.000000	0.036254
434.000000	0.036418
433.000000	0.036373
432.000000	0.036377
431.000000	0.036296
430.000000	0.036385
429.000000	0.036321
428.000000	0.036379
427.000000	0.036621
426.000000	0.036389
425.000000	0.036480
424.000000	0.036513
423.000000	0.036636
422.000000	0.036485
421.000000	0.036477
420.000000	0.036733
419.000000	0.036550
418.000000	0.036550
417.000000	0.036594
416.000000	0.036514
415.000000	0.036827
414.000000	0.037049
413.000000	0.037198
412.000000	0.036887
411.000000	0.036970
410.000000	0.037369
409.000000	0.036856
408.000000	0.037021
407.000000	0.037138
406.000000	0.037154
405.000000	0.037563
404.000000	0.037034
403.000000	0.037700
402.000000	0.037694
401.000000	0.037742
400.000000	0.037490
399.000000	0.037009
398.000000	0.037497
397.000000	0.037640
396.000000	0.037887
395.000000	0.037712
394.000000	0.037645
393.000000	0.038087
392.000000	0.037794
391.000000	0.037783
390.000000	0.038112
389.000000	0.037971
388.000000	0.038131
387.000000	0.038294
386.000000	0.038231
385.000000	0.037949
384.000000	0.038230
383.000000	0.038131
382.000000	0.038426
381.000000	0.038755
380.000000	0.038637
379.000000	0.038684
378.000000	0.038919
377.000000	0.037894
376.000000	0.038354
375.000000	0.038958
374.000000	0.038977
373.000000	0.039593
372.000000	0.039730
371.000000	0.038932
370.000000	0.040126
369.000000	0.039707
368.000000	0.039619
367.000000	0.039924
366.000000	0.039697
365.000000	0.039469
364.000000	0.039355
363.000000	0.039760
362.000000	0.039357
361.000000	0.039591
360.000000	0.039765
359.000000	0.039885
358.000000	0.039482
357.000000	0.040584
356.000000	0.040183
355.000000	0.040165
354.000000	0.040256
353.000000	0.040381
352.000000	0.040310
351.000000	0.040782
350.000000	0.040361
349.000000	0.040468
348.000000	0.040554
347.000000	0.040793
346.000000	0.040254
345.000000	0.040714
344.000000	0.040900
343.000000	0.040751
342.000000	0.041257
341.000000	0.041161
340.000000	0.041379
339.000000	0.041830
338.000000	0.041929
337.000000	0.041816
336.000000	0.042047
335.000000	0.042095
334.000000	0.042144
333.000000	0.041891
332.000000	0.041900
331.000000	0.042361
330.000000	0.042455
329.000000	0.042071
328.000000	0.042277
327.000000	0.042567
326.000000	0.042108
325.000000	0.042087
324.000000	0.042930
323.000000	0.042855
322.000000	0.042942
321.000000	0.043443
320.000000	0.042802
319.000000	0.043019
318.000000	0.042976
317.000000	0.042616
316.000000	0.042886
315.000000	0.043086
314.000000	0.043453
313.000000	0.043302
312.000000	0.042923
311.000000	0.042993
310.000000	0.043432
309.000000	0.043801
308.000000	0.044422
307.000000	0.044167
306.000000	0.044520
305.000000	0.044308
304.000000	0.043830
303.000000	0.044809
302.000000	0.045186
301.000000	0.044702
300.000000	0.044056
299.000000	0.044269
298.000000	0.045254
297.000000	0.045551
296.000000	0.045703
295.000000	0.045786
294.000000	0.045615
293.000000	0.045183
292.000000	0.045188
291.000000	0.045723
290.000000	0.045960
289.000000	0.046394
288.000000	0.046908
287.000000	0.046604
286.000000	0.046657
285.000000	0.046880
284.000000	0.046731
283.000000	0.047160
282.000000	0.047002
281.000000	0.047304
280.000000	0.048124
279.000000	0.047741
278.000000	0.047600
277.000000	0.048245
276.000000	0.048100
275.000000	0.048504
274.000000	0.048764
273.000000	0.048843
272.000000	0.048947
271.000000	0.049098
270.000000	0.048965
269.000000	0.049221
268.000000	0.049453
267.000000	0.049738
266.000000	0.049794
265.000000	0.049531
264.000000	0.049441
263.000000	0.050286
262.000000	0.050252
261.000000	0.050650
260.000000	0.051004
259.000000	0.050141
258.000000	0.051164
257.000000	0.051242
256.000000	0.051403
255.000000	0.052111
254.000000	0.051561
253.000000	0.051685
252.000000	0.052085
251.000000	0.053205
250.000000	0.053407
249.000000	0.053516
248.000000	0.054541
247.000000	0.055293
246.000000	0.054791
245.000000	0.054052
244.000000	0.055007
243.000000	0.056036
242.000000	0.055829
241.000000	0.056278
240.000000	0.056236
239.000000	0.057668
238.000000	0.057558
237.000000	0.059188
236.000000	0.059687
235.000000	0.058676
234.000000	0.060179
233.000000	0.061163
232.000000	0.061399
231.000000	0.061517
230.000000	0.062073
229.000000	0.062218
228.000000	0.062929
227.000000	0.064626
226.000000	0.063903
225.000000	0.066179
224.000000	0.069053
223.000000	0.066178
222.000000	0.068095
221.000000	0.067337
220.000000	0.069761
219.000000	0.069555
218.000000	0.070467
217.000000	0.071678
216.000000	0.073268
215.000000	0.074413
214.000000	0.074830
213.000000	0.077811
212.000000	0.080236
211.000000	0.080828
210.000000	0.083088
209.000000	0.085553
208.000000	0.089497
207.000000	0.090337
206.000000	0.091641
205.000000	0.094413
204.000000	0.099600
203.000000	0.104189
202.000000	0.108144
201.000000	0.112797
200.000000	0.115501
